#    s        x        y     Ue/Vinf    Dstar     Theta      Cf       H       H*        P         m          K          tau         Di
   0.00000  1.00000  0.00126  0.95248  0.030613  0.010233  0.000109    2.9916    1.5012  0.00928  0.02916  0.01327
   0.00837  0.99180  0.00295  0.95468  0.029349  0.010116  0.000144    2.9012    1.5025  0.00922  0.02802  0.01323
   0.01972  0.98067  0.00521  0.95825  0.027644  0.009934  0.000197    2.7828    1.5056  0.00912  0.02649  0.01316
   0.03284  0.96782  0.00778  0.96323  0.025750  0.009693  0.000264    2.6567    1.5109  0.00899  0.02480  0.01309
   0.04736  0.95357  0.01057  0.96976  0.023777  0.009394  0.000348    2.5311    1.5184  0.00883  0.02306  0.01301
   0.06282  0.93838  0.01349  0.97781  0.021834  0.009050  0.000448    2.4126    1.5279  0.00865  0.02135  0.01293
   0.07882  0.92265  0.01644  0.98721  0.020000  0.008676  0.000562    2.3052    1.5388  0.00846  0.01974  0.01284
   0.09511  0.90663  0.01939  0.99774  0.018316  0.008288  0.000689    2.2100    1.5504  0.00825  0.01827  0.01276
   0.11155  0.89046  0.02230  1.00917  0.016796  0.007897  0.000826    2.1268    1.5622  0.00804  0.01695  0.01268
   0.12806  0.87420  0.02515  1.02128  0.015438  0.007514  0.000971    2.0545    1.5740  0.00784  0.01577  0.01260
   0.14460  0.85789  0.02795  1.03386  0.014233  0.007145  0.001123    1.9920    1.5853  0.00764  0.01471  0.01252
   0.16116  0.84156  0.03068  1.04675  0.013166  0.006794  0.001279    1.9380    1.5960  0.00744  0.01378  0.01244
   0.17773  0.82520  0.03335  1.05981  0.012222  0.006462  0.001438    1.8914    1.6060  0.00726  0.01295  0.01235
   0.19431  0.80884  0.03596  1.07291  0.011386  0.006151  0.001597    1.8511    1.6153  0.00708  0.01222  0.01227
   0.21089  0.79245  0.03851  1.08598  0.010644  0.005860  0.001756    1.8163    1.6238  0.00691  0.01156  0.01219
   0.22746  0.77606  0.04099  1.09895  0.009983  0.005589  0.001914    1.7861    1.6316  0.00675  0.01097  0.01210
   0.24404  0.75966  0.04340  1.11178  0.009392  0.005337  0.002070    1.7599    1.6386  0.00660  0.01044  0.01202
   0.26062  0.74326  0.04576  1.12445  0.008860  0.005101  0.002224    1.7370    1.6451  0.00645  0.00996  0.01193
   0.27719  0.72684  0.04804  1.13696  0.008379  0.004880  0.002376    1.7170    1.6509  0.00631  0.00953  0.01184
   0.29375  0.71043  0.05026  1.14932  0.007942  0.004673  0.002526    1.6995    1.6562  0.00617  0.00913  0.01175
   0.31031  0.69401  0.05242  1.16154  0.007541  0.004478  0.002674    1.6840    1.6610  0.00604  0.00876  0.01166
   0.32687  0.67758  0.05450  1.17362  0.007173  0.004295  0.002821    1.6703    1.6654  0.00592  0.00842  0.01156
   0.34341  0.66116  0.05652  1.18561  0.006833  0.004121  0.002966    1.6581    1.6694  0.00579  0.00810  0.01146
   0.35995  0.64474  0.05847  1.19751  0.006516  0.003956  0.003110    1.6472    1.6730  0.00567  0.00780  0.01137
   0.37648  0.62832  0.06035  1.20937  0.006220  0.003799  0.003254    1.6375    1.6764  0.00556  0.00752  0.01126
   0.39299  0.61191  0.06215  1.22119  0.005942  0.003648  0.003399    1.6287    1.6795  0.00544  0.00726  0.01116
   0.40949  0.59550  0.06388  1.23301  0.005680  0.003505  0.003544    1.6208    1.6824  0.00533  0.00700  0.01105
   0.42598  0.57909  0.06553  1.24486  0.005432  0.003366  0.003690    1.6136    1.6851  0.00522  0.00676  0.01094
   0.44245  0.56270  0.06711  1.25676  0.005196  0.003233  0.003838    1.6070    1.6877  0.00511  0.00653  0.01083
   0.45890  0.54631  0.06860  1.26874  0.004970  0.003105  0.003989    1.6009    1.6901  0.00500  0.00631  0.01072
   0.47533  0.52994  0.07002  1.28083  0.004754  0.002980  0.004143    1.5952    1.6924  0.00489  0.00609  0.01060
   0.49174  0.51358  0.07135  1.29306  0.004547  0.002860  0.004301    1.5899    1.6946  0.00478  0.00588  0.01048
   0.50813  0.49724  0.07259  1.30547  0.004346  0.002742  0.004464    1.5848    1.6967  0.00467  0.00567  0.01035
   0.52450  0.48092  0.07374  1.31810  0.004152  0.002628  0.004635    1.5799    1.6989  0.00457  0.00547  0.01023
   0.54083  0.46462  0.07480  1.33100  0.003964  0.002517  0.004813    1.5751    1.7010  0.00446  0.00528  0.01009
   0.55713  0.44834  0.07576  1.34423  0.003780  0.002407  0.005002    1.5702    1.7032  0.00435  0.00508  0.00996
   0.57339  0.43211  0.07663  1.35787  0.003599  0.002300  0.005205    1.5650    1.7056  0.00424  0.00489  0.00982
   0.58960  0.41592  0.07738  1.37202  0.003421  0.002194  0.005426    1.5593    1.7081  0.00413  0.00469  0.00968
   0.60571  0.39982  0.07804  1.38715  0.003239  0.002087  0.005680    1.5522    1.7113  0.00402  0.00449  0.00953
   0.62170  0.38384  0.07856  1.40253  0.003064  0.001983  0.005949    1.5451    1.7144  0.00390  0.00430  0.00938
   0.63761  0.36794  0.07893  1.41723  0.002906  0.001887  0.006205    1.5396    1.7171  0.00379  0.00412  0.00923
   0.65345  0.35210  0.07916  1.43179  0.002757  0.001796  0.006463    1.5348    1.7195  0.00368  0.00395  0.00907
   0.66923  0.33632  0.07922  1.44630  0.002615  0.001709  0.006726    1.5305    1.7218  0.00357  0.00378  0.00890
   0.68496  0.32059  0.07913  1.46083  0.002480  0.001624  0.006996    1.5265    1.7240  0.00347  0.00362  0.00873
   0.70063  0.30492  0.07888  1.47546  0.002349  0.001543  0.007275    1.5228    1.7262  0.00336  0.00347  0.00855
   0.71624  0.28931  0.07846  1.49024  0.002224  0.001464  0.007568    1.5192    1.7284  0.00325  0.00331  0.00837
   0.73180  0.27377  0.07787  1.50525  0.002102  0.001387  0.007877    1.5156    1.7306  0.00314  0.00316  0.00818
   0.74728  0.25831  0.07709  1.52052  0.001983  0.001312  0.008205    1.5119    1.7329  0.00303  0.00302  0.00799
   0.76269  0.24293  0.07614  1.53614  0.001868  0.001238  0.008558    1.5081    1.7354  0.00292  0.00287  0.00779
   0.77801  0.22765  0.07499  1.55217  0.001754  0.001166  0.008939    1.5039    1.7381  0.00281  0.00272  0.00758
   0.79324  0.21248  0.07364  1.56870  0.001643  0.001096  0.009357    1.4994    1.7410  0.00270  0.00258  0.00737
   0.80835  0.19745  0.07210  1.58582  0.001534  0.001027  0.009819    1.4942    1.7442  0.00258  0.00243  0.00714
   0.82334  0.18256  0.07034  1.60364  0.001426  0.000958  0.010335    1.4883    1.7479  0.00246  0.00229  0.00691
   0.83818  0.16785  0.06837  1.62230  0.001320  0.000891  0.010917    1.4816    1.7520  0.00234  0.00214  0.00666
   0.85283  0.15336  0.06618  1.64194  0.001214  0.000824  0.011577    1.4740    1.7566  0.00222  0.00199  0.00641
   0.86726  0.13914  0.06378  1.66269  0.001111  0.000758  0.012329    1.4657    1.7617  0.00210  0.00185  0.00614
   0.88139  0.12525  0.06115  1.68471  0.001009  0.000693  0.013178    1.4572    1.7671  0.00197  0.00170  0.00585
   0.89514  0.11179  0.05832  1.70806  0.000912  0.000629  0.014105    1.4501    1.7722  0.00183  0.00156  0.00555
   0.90840  0.09889  0.05531  1.73266  0.000821  0.000567  0.015029    1.4481    1.7759  0.00170  0.00142  0.00523
   0.92101  0.08668  0.05215  1.75816  0.000742  0.000508  0.015686    1.4605    1.7747  0.00157  0.00130  0.00490
   0.93281  0.07533  0.04890  1.78404  0.000687  0.000454  0.015371    1.5125    1.7606  0.00145  0.00123  0.00454
   0.94366  0.06499  0.04563  1.80950  0.000680  0.000409  0.013032    1.6637    1.7165  0.00134  0.00123  0.00415
   0.95345  0.05575  0.04241  1.84259  0.000776  0.000366  0.008352    2.1209    1.6215  0.00124  0.00143  0.00371
   0.96216  0.04761  0.03929  1.93806  0.001048  0.000281  0.000223    3.7243    1.5161  0.00106  0.00203  0.00311
   0.96984  0.04054  0.03631  2.05143  0.001246  0.000190 -0.001427    6.5686    1.5392  0.00080  0.00256  0.00252
   0.97658  0.03441  0.03349  2.06797  0.001177  0.000178 -0.001529    6.6054    1.5396  0.00076  0.00243  0.00243
   0.98251  0.02911  0.03083  2.08416  0.001029  0.000168 -0.001682    6.1267    1.5357  0.00073  0.00215  0.00234
   0.98774  0.02453  0.02830  2.10239  0.000861  0.000158 -0.001863    5.4520    1.5313  0.00070  0.00181  0.00225
   0.99240  0.02055  0.02589  2.12464  0.000704  0.000148 -0.001873    4.7675    1.5285  0.00067  0.00149  0.00216
   0.99656  0.01707  0.02360  2.15206  0.000569  0.000137 -0.001150    4.1645    1.5280  0.00063  0.00122  0.00208
   1.00032  0.01404  0.02138  2.18444  0.000460  0.000125  0.000842    3.6774    1.5297  0.00060  0.00100  0.00199
   1.00373  0.01138  0.01924  2.22133  0.000376  0.000113  0.004083    3.3209    1.5354  0.00056  0.00084  0.00191
   1.00685  0.00906  0.01715  2.25998  0.000312  0.000102  0.008316    3.0676    1.5438  0.00052  0.00071  0.00181
   1.00973  0.00704  0.01510  2.29695  0.000262  0.000091  0.013423    2.8822    1.5532  0.00048  0.00060  0.00171
   1.01240  0.00530  0.01308  2.32884  0.000223  0.000081  0.019424    2.7398    1.5628  0.00044  0.00052  0.00160
   1.01488  0.00381  0.01109  2.35194  0.000190  0.000073  0.026353    2.6255    1.5723  0.00040  0.00045  0.00148
   1.01722  0.00258  0.00911  2.36166  0.000164  0.000065  0.034130    2.5310    1.5815  0.00036  0.00039  0.00135
   1.01942  0.00159  0.00714  2.35254  0.000143  0.000058  0.042417    2.4519    1.5903  0.00032  0.00034  0.00121
   1.02150  0.00084  0.00520  2.31879  0.000127  0.000053  0.050520    2.3862    1.5984  0.00029  0.00029  0.00106
   1.02349  0.00034  0.00328  2.25584  0.000114  0.000049  0.057419    2.3328    1.6056  0.00025  0.00026  0.00090
   1.02539  0.00006  0.00140  2.16280  0.000106  0.000046  0.061629    2.2963    1.6108  0.00022  0.00023  0.00075
   1.02720  0.00001 -0.00042  2.04563  0.000100  0.000044  0.062882    2.2745    1.6141  0.00018  0.00020  0.00061
   1.02905  0.00016 -0.00225  1.90234  0.000095  0.000042  0.062723    2.2486    1.6180  0.00015  0.00018  0.00047
   1.03096  0.00056 -0.00413  1.72743  0.000093  0.000042  0.059588    2.2262    1.6216  0.00012  0.00016  0.00035
   1.03296  0.00122 -0.00601  1.52848  0.000093  0.000042  0.053429    2.2096    1.6243  0.00010  0.00014  0.00024
   1.03504  0.00215 -0.00788  1.31729  0.000096  0.000044  0.045171    2.1996    1.6260  0.00008  0.00013  0.00016
   1.03723  0.00334 -0.00971  1.10657  0.000101  0.000046  0.036307    2.1936    1.6270  0.00006  0.00011  0.00010
   1.03954  0.00480 -0.01150  0.90633  0.000108  0.000049  0.027773    2.1947    1.6268  0.00004  0.00010  0.00006
   1.04200  0.00653 -0.01325  0.72177  0.000116  0.000053  0.020557    2.1924    1.6272  0.00003  0.00008  0.00003
   1.04462  0.00853 -0.01495  0.55553  0.000127  0.000058  0.014339    2.2044    1.6252  0.00002  0.00007  0.00002
   1.04744  0.01081 -0.01661  0.40641  0.000137  0.000063  0.009739    2.1966    1.6265  0.00001  0.00006  0.00001
   1.05050  0.01339 -0.01825  0.27407  0.000152  0.000068  0.005800    2.2240    1.6219  0.00001  0.00004  0.00000
   1.05383  0.01631 -0.01986  0.15522  0.000162  0.000074  0.003113    2.2088    1.6244  0.00000  0.00003  0.00000
   1.05750  0.01960 -0.02147  0.04949  0.000189  0.000085  0.000837    2.2295    1.6211  0.00000  0.00001  0.00000
   1.06156  0.02333 -0.02307 -0.04616  0.000189  0.000085  0.000781    2.2295    1.6211  0.00000 -0.00001 -0.00000
   1.06609  0.02757 -0.02468 -0.13317  0.000220  0.000098  0.001886    2.2568    1.6168  0.00000 -0.00003 -0.00000
   1.07120  0.03242 -0.02630 -0.21184  0.000236  0.000106  0.002863    2.2338    1.6204  0.00000 -0.00005 -0.00000
   1.07700  0.03798 -0.02793 -0.28447  0.000262  0.000115  0.003343    2.2720    1.6144  0.00001 -0.00007 -0.00000
   1.08362  0.04440 -0.02958 -0.35069  0.000285  0.000126  0.003824    2.2617    1.6160  0.00002 -0.00010 -0.00001
   1.09122  0.05181 -0.03124 -0.41186  0.000315  0.000138  0.003982    2.2839    1.6126  0.00002 -0.00013 -0.00002
   1.09993  0.06036 -0.03289 -0.46749  0.000345  0.000151  0.004111    2.2873    1.6121  0.00003 -0.00016 -0.00002
   1.10983  0.07013 -0.03449 -0.51798  0.000380  0.000165  0.004087    2.3008    1.6102  0.00004 -0.00020 -0.00004
   1.12094  0.08113 -0.03602 -0.56299  0.000416  0.000180  0.004018    2.3097    1.6089  0.00006 -0.00023 -0.00005
   1.13317  0.09329 -0.03741 -0.60260  0.000456  0.000196  0.003892    2.3203    1.6074  0.00007 -0.00027 -0.00007
   1.14637  0.10643 -0.03865 -0.63695  0.000496  0.000213  0.003743    2.3299    1.6060  0.00009 -0.00032 -0.00009
   1.16035  0.12037 -0.03971 -0.66646  0.000537  0.000230  0.003582    2.3393    1.6047  0.00010 -0.00036 -0.00011
   1.17492  0.13492 -0.04058 -0.69171  0.000579  0.000247  0.003421    2.3482    1.6035  0.00012 -0.00040 -0.00013
   1.18995  0.14993 -0.04126 -0.71331  0.000621  0.000263  0.003265    2.3565    1.6023  0.00013 -0.00044 -0.00015
   1.20532  0.16529 -0.04178 -0.73185  0.000662  0.000280  0.003117    2.3644    1.6013  0.00015 -0.00048 -0.00018
   1.22096  0.18092 -0.04213 -0.74784  0.000703  0.000296  0.002979    2.3718    1.6003  0.00017 -0.00053 -0.00020
   1.23681  0.19677 -0.04235 -0.76173  0.000743  0.000312  0.002850    2.3787    1.5994  0.00018 -0.00057 -0.00022
   1.25283  0.21279 -0.04244 -0.77386  0.000782  0.000328  0.002732    2.3852    1.5986  0.00020 -0.00061 -0.00024
   1.26900  0.22896 -0.04241 -0.78454  0.000821  0.000343  0.002623    2.3911    1.5978  0.00021 -0.00064 -0.00027
   1.28529  0.24525 -0.04228 -0.79401  0.000859  0.000359  0.002523    2.3966    1.5971  0.00023 -0.00068 -0.00029
   1.30169  0.26165 -0.04206 -0.80248  0.000897  0.000373  0.002432    2.4015    1.5965  0.00024 -0.00072 -0.00031
   1.31818  0.27814 -0.04176 -0.81010  0.000933  0.000388  0.002349    2.4058    1.5959  0.00025 -0.00076 -0.00033
   1.33476  0.29471 -0.04140 -0.81704  0.000969  0.000402  0.002274    2.4094    1.5955  0.00027 -0.00079 -0.00035
   1.35141  0.31136 -0.04097 -0.82340  0.001003  0.000416  0.002207    2.4122    1.5951  0.00028 -0.00083 -0.00037
   1.36813  0.32807 -0.04049 -0.82932  0.001036  0.000429  0.002148    2.4142    1.5949  0.00030 -0.00086 -0.00039
   1.38490  0.34483 -0.03997 -0.83488  0.001067  0.000442  0.002097    2.4150    1.5948  0.00031 -0.00089 -0.00041
   1.40172  0.36165 -0.03941 -0.84022  0.001097  0.000454  0.002055    2.4144    1.5949  0.00032 -0.00092 -0.00043
   1.41857  0.37849 -0.03882 -0.84545  0.001123  0.000466  0.002024    2.4118    1.5952  0.00033 -0.00095 -0.00045
   1.43543  0.39533 -0.03820 -0.85086  0.001145  0.000476  0.002014    2.4042    1.5961  0.00034 -0.00097 -0.00047
   1.45223  0.41212 -0.03756 -0.85648  0.001162  0.000485  0.002017    2.3943    1.5974  0.00036 -0.00100 -0.00049
   1.46900  0.42888 -0.03688 -0.86128  0.001190  0.000496  0.001972    2.3989    1.5968  0.00037 -0.00103 -0.00051
   1.48578  0.44564 -0.03614 -0.86554  0.001220  0.000507  0.001919    2.4062    1.5959  0.00038 -0.00106 -0.00052
   1.50257  0.46241 -0.03537 -0.86937  0.001251  0.000518  0.001866    2.4138    1.5949  0.00039 -0.00109 -0.00054
   1.51939  0.47921 -0.03455 -0.87286  0.001281  0.000529  0.001816    2.4205    1.5941  0.00040 -0.00112 -0.00056
   1.53623  0.49603 -0.03370 -0.87608  0.001311  0.000540  0.001771    2.4261    1.5934  0.00041 -0.00115 -0.00058
   1.55310  0.51287 -0.03282 -0.87908  0.001340  0.000551  0.001731    2.4308    1.5928  0.00043 -0.00118 -0.00060
   1.56999  0.52974 -0.03190 -0.88190  0.001368  0.000562  0.001694    2.4345    1.5924  0.00044 -0.00121 -0.00061
   1.58690  0.54662 -0.03096 -0.88457  0.001396  0.000573  0.001661    2.4374    1.5920  0.00045 -0.00123 -0.00063
   1.60383  0.56353 -0.03000 -0.88712  0.001422  0.000583  0.001631    2.4397    1.5918  0.00046 -0.00126 -0.00065
   1.62078  0.58045 -0.02902 -0.88955  0.001448  0.000593  0.001603    2.4413    1.5916  0.00047 -0.00129 -0.00066
   1.63774  0.59738 -0.02801 -0.89191  0.001473  0.000603  0.001578    2.4424    1.5914  0.00048 -0.00131 -0.00068
   1.65472  0.61433 -0.02699 -0.89419  0.001498  0.000613  0.001556    2.4430    1.5914  0.00049 -0.00134 -0.00070
   1.67172  0.63130 -0.02595 -0.89641  0.001521  0.000623  0.001535    2.4432    1.5914  0.00050 -0.00136 -0.00071
   1.68872  0.64827 -0.02490 -0.89859  0.001544  0.000632  0.001517    2.4430    1.5914  0.00051 -0.00139 -0.00073
   1.70574  0.66525 -0.02384 -0.90074  0.001566  0.000641  0.001500    2.4423    1.5915  0.00052 -0.00141 -0.00075
   1.72277  0.68225 -0.02277 -0.90286  0.001587  0.000650  0.001485    2.4414    1.5916  0.00053 -0.00143 -0.00076
   1.73980  0.69925 -0.02169 -0.90496  0.001607  0.000659  0.001472    2.4400    1.5917  0.00054 -0.00145 -0.00078
   1.75684  0.71625 -0.02060 -0.90705  0.001626  0.000667  0.001460    2.4384    1.5919  0.00055 -0.00148 -0.00079
   1.77389  0.73326 -0.01950 -0.90913  0.001645  0.000675  0.001450    2.4365    1.5922  0.00056 -0.00150 -0.00081
   1.79094  0.75027 -0.01839 -0.91122  0.001663  0.000683  0.001440    2.4343    1.5924  0.00057 -0.00152 -0.00082
   1.80799  0.76729 -0.01728 -0.91331  0.001680  0.000691  0.001433    2.4319    1.5927  0.00058 -0.00153 -0.00084
   1.82504  0.78430 -0.01616 -0.91542  0.001696  0.000698  0.001426    2.4292    1.5930  0.00059 -0.00155 -0.00085
   1.84209  0.80132 -0.01503 -0.91753  0.001712  0.000706  0.001420    2.4264    1.5934  0.00059 -0.00157 -0.00087
   1.85914  0.81833 -0.01390 -0.91967  0.001727  0.000713  0.001416    2.4234    1.5938  0.00060 -0.00159 -0.00088
   1.87618  0.83534 -0.01276 -0.92182  0.001741  0.000719  0.001412    2.4202    1.5941  0.00061 -0.00161 -0.00090
   1.89322  0.85233 -0.01162 -0.92400  0.001755  0.000726  0.001409    2.4168    1.5946  0.00062 -0.00162 -0.00091
   1.91023  0.86931 -0.01047 -0.92620  0.001767  0.000732  0.001407    2.4133    1.5950  0.00063 -0.00164 -0.00093
   1.92721  0.88624 -0.00931 -0.92843  0.001779  0.000738  0.001407    2.4096    1.5955  0.00064 -0.00165 -0.00094
   1.94411  0.90311 -0.00815 -0.93068  0.001790  0.000744  0.001407    2.4056    1.5960  0.00064 -0.00167 -0.00096
   1.96087  0.91982 -0.00699 -0.93297  0.001800  0.000750  0.001408    2.4013    1.5965  0.00065 -0.00168 -0.00097
   1.97732  0.93623 -0.00584 -0.93529  0.001809  0.000755  0.001412    2.3966    1.5971  0.00066 -0.00169 -0.00099
   1.99319  0.95207 -0.00472 -0.93763  0.001816  0.000759  0.001418    2.3910    1.5978  0.00067 -0.00170 -0.00100
   2.00805  0.96689 -0.00367 -0.93994  0.001820  0.000763  0.001428    2.3845    1.5986  0.00067 -0.00171 -0.00101
   2.02139  0.98019 -0.00271 -0.94243  0.001816  0.000765  0.001451    2.3731    1.6001  0.00068 -0.00171 -0.00102
   2.03285  0.99163 -0.00187 -0.94430  0.001819  0.000768  0.001456    2.3693    1.6006  0.00068 -0.00172 -0.00103
   2.04125  1.00000 -0.00126 -0.95248  0.001694  0.000747  0.001738    2.2673    1.5996  0.00068 -0.00161 -0.00103
   2.04125  1.00010 -0.00001  0.95248  0.034797  0.010980  0.000000    3.1692
   2.04963  1.00847 -0.00051  0.94943  0.033978  0.011162  0.000000    3.0442
   2.05919  1.01801 -0.00091  0.94651  0.032859  0.011334  0.000000    2.8992
   2.07007  1.02889 -0.00126  0.94380  0.031580  0.011491  0.000000    2.7482
   2.08247  1.04129 -0.00155  0.94148  0.030157  0.011624  0.000000    2.5943
   2.09659  1.05541 -0.00177  0.93976  0.028610  0.011721  0.000000    2.4409
   2.11268  1.07150 -0.00191  0.93880  0.026972  0.011773  0.000000    2.2909
   2.13102  1.08983 -0.00193  0.93877  0.025279  0.011775  0.000000    2.1469
   2.15190  1.11072 -0.00181  0.93976  0.023579  0.011724  0.000000    2.0111
   2.17570  1.13451 -0.00151  0.94176  0.021918  0.011626  0.000000    1.8852
   2.20281  1.16162 -0.00097  0.94466  0.020341  0.011490  0.000000    1.7703
   2.23369  1.19249 -0.00015  0.94827  0.018881  0.011328  0.000000    1.6667
   2.26888  1.22765  0.00103  0.95234  0.017561  0.011154  0.000000    1.5744
   2.30896  1.26771  0.00265  0.95663  0.016387  0.010978  0.000000    1.4926
   2.35463  1.31332  0.00482  0.96093  0.015357  0.010809  0.000000    1.4207
   2.40666  1.36527  0.00764  0.96510  0.014462  0.010652  0.000000    1.3577
   2.46593  1.42444  0.01127  0.96905  0.013689  0.010508  0.000000    1.3027
   2.53346  1.49181  0.01585  0.97271  0.013025  0.010379  0.000000    1.2549
