#    s        x        y     Ue/Vinf    Dstar     Theta      Cf       H       H*        P         m          K          tau         Di
   0.00000  1.00000  0.00126  0.88716  0.004769  0.002862  0.001996    1.6664    1.6776  0.00225  0.00423  0.00335
   0.00837  0.99180  0.00295  0.90271  0.004347  0.002675  0.002252    1.6246    1.6912  0.00218  0.00392  0.00333
   0.01972  0.98067  0.00521  0.92281  0.003877  0.002456  0.002593    1.5789    1.7072  0.00209  0.00358  0.00329
   0.03284  0.96782  0.00778  0.94217  0.003491  0.002261  0.002923    1.5441    1.7202  0.00201  0.00329  0.00325
   0.04736  0.95357  0.01057  0.96008  0.003176  0.002091  0.003228    1.5186    1.7304  0.00193  0.00305  0.00320
   0.06282  0.93838  0.01349  0.97609  0.002922  0.001946  0.003496    1.5013    1.7379  0.00185  0.00285  0.00315
   0.07882  0.92265  0.01644  0.99021  0.002716  0.001822  0.003724    1.4906    1.7429  0.00179  0.00269  0.00308
   0.09511  0.90663  0.01939  1.00263  0.002547  0.001714  0.003910    1.4859    1.7459  0.00172  0.00255  0.00302
   0.11155  0.89046  0.02230  1.01360  0.002407  0.001618  0.004049    1.4870    1.7466  0.00166  0.00244  0.00294
   0.12806  0.87420  0.02515  1.02333  0.002292  0.001533  0.004134    1.4949    1.7449  0.00161  0.00235  0.00287
   0.14460  0.85789  0.02795  1.03200  0.002202  0.001457  0.004149    1.5115    1.7402  0.00155  0.00227  0.00279
   0.16116  0.84156  0.03068  1.03973  0.002138  0.001388  0.004069    1.5405    1.7315  0.00150  0.00222  0.00270
   0.17773  0.82520  0.03335  1.04666  0.002106  0.001325  0.003857    1.5889    1.7170  0.00145  0.00220  0.00261
   0.19431  0.80884  0.03596  1.05305  0.002119  0.001269  0.003461    1.6693    1.6943  0.00141  0.00223  0.00251
   0.21089  0.79245  0.03851  1.05966  0.002197  0.001217  0.002831    1.8058    1.6602  0.00137  0.00233  0.00240
   0.22746  0.77606  0.04099  1.06851  0.002372  0.001161  0.001968    2.0434    1.6132  0.00133  0.00253  0.00228
   0.24404  0.75966  0.04340  1.08329  0.002662  0.001085  0.001048    2.4542    1.5592  0.00127  0.00288  0.00215
   0.26062  0.74326  0.04576  1.10556  0.003023  0.000980  0.000407    3.0854    1.5191  0.00120  0.00334  0.00201
   0.27719  0.72684  0.04804  1.12369  0.003298  0.000896  0.000059    3.6797    1.5296  0.00113  0.00371  0.00195
   0.29375  0.71043  0.05026  1.12648  0.003385  0.000883 -0.000000    3.8316    1.5286  0.00112  0.00381  0.00193
   0.31031  0.69401  0.05242  1.12956  0.003384  0.000869 -0.000022    3.8925    1.5284  0.00111  0.00382  0.00191
   0.32687  0.67758  0.05450  1.13281  0.003331  0.000855 -0.000023    3.8966    1.5284  0.00110  0.00377  0.00190
   0.34341  0.66116  0.05652  1.13621  0.003246  0.000840 -0.000012    3.8643    1.5285  0.00108  0.00369  0.00188
   0.35995  0.64474  0.05847  1.13976  0.003142  0.000825  0.000009    3.8087    1.5287  0.00107  0.00358  0.00187
   0.37648  0.62832  0.06035  1.14350  0.003026  0.000809  0.000039    3.7393    1.5292  0.00106  0.00346  0.00185
   0.39299  0.61191  0.06215  1.14742  0.002906  0.000793  0.000077    3.6632    1.5298  0.00104  0.00333  0.00183
   0.40949  0.59550  0.06388  1.15153  0.002785  0.000777  0.000122    3.5852    1.5306  0.00103  0.00321  0.00182
   0.42598  0.57909  0.06553  1.15584  0.002667  0.000760  0.000174    3.5090    1.5317  0.00102  0.00308  0.00180
   0.44245  0.56270  0.06711  1.16032  0.002553  0.000743  0.000231    3.4366    1.5329  0.00100  0.00296  0.00178
   0.45890  0.54631  0.06860  1.16497  0.002444  0.000725  0.000292    3.3692    1.5343  0.00098  0.00285  0.00176
   0.47533  0.52994  0.07002  1.16976  0.002341  0.000708  0.000357    3.3073    1.5357  0.00097  0.00274  0.00174
   0.49174  0.51358  0.07135  1.17468  0.002243  0.000690  0.000424    3.2506    1.5373  0.00095  0.00263  0.00172
   0.50813  0.49724  0.07259  1.17971  0.002150  0.000672  0.000495    3.1987    1.5389  0.00094  0.00254  0.00170
   0.52450  0.48092  0.07374  1.18485  0.002061  0.000654  0.000569    3.1505    1.5406  0.00092  0.00244  0.00168
   0.54083  0.46462  0.07480  1.19010  0.001974  0.000636  0.000649    3.1048    1.5423  0.00090  0.00235  0.00165
   0.55713  0.44834  0.07576  1.19547  0.001890  0.000618  0.000736    3.0598    1.5441  0.00088  0.00226  0.00163
   0.57339  0.43211  0.07663  1.20098  0.001805  0.000599  0.000837    3.0130    1.5463  0.00086  0.00217  0.00160
   0.58960  0.41592  0.07738  1.20665  0.001718  0.000580  0.000958    2.9613    1.5488  0.00084  0.00207  0.00158
   0.60571  0.39982  0.07804  1.21261  0.001623  0.000561  0.001124    2.8953    1.5525  0.00082  0.00197  0.00155
   0.62170  0.38384  0.07856  1.21845  0.001532  0.000541  0.001312    2.8300    1.5565  0.00080  0.00187  0.00152
   0.63761  0.36794  0.07893  1.22362  0.001455  0.000523  0.001477    2.7826    1.5597  0.00078  0.00178  0.00149
   0.65345  0.35210  0.07916  1.22833  0.001386  0.000505  0.001638    2.7433    1.5626  0.00076  0.00170  0.00146
   0.66923  0.33632  0.07922  1.23257  0.001324  0.000488  0.001794    2.7105    1.5651  0.00074  0.00163  0.00143
   0.68496  0.32059  0.07913  1.23638  0.001265  0.000472  0.001949    2.6822    1.5674  0.00072  0.00156  0.00140
   0.70063  0.30492  0.07888  1.23975  0.001210  0.000455  0.002104    2.6576    1.5695  0.00070  0.00150  0.00136
   0.71624  0.28931  0.07846  1.24268  0.001158  0.000440  0.002261    2.6357    1.5714  0.00068  0.00144  0.00133
   0.73180  0.27377  0.07787  1.24516  0.001109  0.000424  0.002423    2.6161    1.5732  0.00066  0.00138  0.00129
   0.74728  0.25831  0.07709  1.24717  0.001061  0.000408  0.002589    2.5983    1.5748  0.00063  0.00132  0.00125
   0.76269  0.24293  0.07614  1.24867  0.001014  0.000393  0.002761    2.5822    1.5764  0.00061  0.00127  0.00121
   0.77801  0.22765  0.07499  1.24964  0.000969  0.000377  0.002940    2.5674    1.5778  0.00059  0.00121  0.00116
   0.79324  0.21248  0.07364  1.25003  0.000925  0.000362  0.003129    2.5538    1.5792  0.00057  0.00116  0.00112
   0.80835  0.19745  0.07210  1.24979  0.000881  0.000347  0.003328    2.5412    1.5805  0.00054  0.00110  0.00107
   0.82334  0.18256  0.07034  1.24885  0.000838  0.000331  0.003541    2.5296    1.5817  0.00052  0.00105  0.00102
   0.83818  0.16785  0.06837  1.24714  0.000796  0.000316  0.003768    2.5187    1.5828  0.00049  0.00099  0.00097
   0.85283  0.15336  0.06618  1.24457  0.000754  0.000301  0.004014    2.5086    1.5839  0.00047  0.00094  0.00092
   0.86726  0.13914  0.06378  1.24103  0.000712  0.000285  0.004281    2.4990    1.5850  0.00044  0.00088  0.00086
   0.88139  0.12525  0.06115  1.23638  0.000670  0.000269  0.004575    2.4899    1.5860  0.00041  0.00083  0.00081
   0.89514  0.11179  0.05832  1.23050  0.000629  0.000253  0.004899    2.4812    1.5870  0.00038  0.00077  0.00075
   0.90840  0.09889  0.05531  1.22322  0.000588  0.000238  0.005259    2.4726    1.5879  0.00036  0.00072  0.00069
   0.92101  0.08668  0.05215  1.21440  0.000547  0.000222  0.005661    2.4642    1.5889  0.00033  0.00066  0.00063
   0.93281  0.07533  0.04890  1.20392  0.000507  0.000206  0.006107    2.4557    1.5899  0.00030  0.00061  0.00057
   0.94366  0.06499  0.04563  1.19171  0.000469  0.000191  0.006599    2.4470    1.5909  0.00027  0.00056  0.00052
   0.95345  0.05575  0.04241  1.17771  0.000432  0.000177  0.007139    2.4380    1.5920  0.00025  0.00051  0.00046
   0.96216  0.04761  0.03929  1.16189  0.000398  0.000164  0.007723    2.4286    1.5931  0.00022  0.00046  0.00041
   0.96984  0.04054  0.03631  1.14419  0.000366  0.000151  0.008349    2.4188    1.5943  0.00020  0.00042  0.00036
   0.97658  0.03441  0.03349  1.12447  0.000337  0.000140  0.009015    2.4086    1.5956  0.00018  0.00038  0.00032
   0.98251  0.02911  0.03083  1.10248  0.000309  0.000129  0.009719    2.3978    1.5969  0.00016  0.00034  0.00028
   0.98774  0.02453  0.02830  1.07785  0.000284  0.000119  0.010457    2.3865    1.5984  0.00014  0.00031  0.00024
   0.99240  0.02055  0.02589  1.05010  0.000261  0.000110  0.011224    2.3747    1.5999  0.00012  0.00027  0.00020
   0.99656  0.01707  0.02360  1.01858  0.000240  0.000101  0.012011    2.3624    1.6016  0.00011  0.00024  0.00017
   1.00032  0.01404  0.02138  0.98248  0.000220  0.000093  0.012800    2.3495    1.6033  0.00009  0.00022  0.00014
   1.00373  0.01138  0.01924  0.94075  0.000201  0.000086  0.013564    2.3361    1.6051  0.00008  0.00019  0.00011
   1.00685  0.00906  0.01715  0.89213  0.000184  0.000079  0.014255    2.3222    1.6071  0.00006  0.00016  0.00009
   1.00973  0.00704  0.01510  0.83508  0.000168  0.000073  0.014802    2.3081    1.6091  0.00005  0.00014  0.00007
   1.01240  0.00530  0.01308  0.76778  0.000153  0.000067  0.015101    2.2935    1.6112  0.00004  0.00012  0.00005
   1.01488  0.00381  0.01109  0.68834  0.000140  0.000062  0.014980    2.2800    1.6132  0.00003  0.00010  0.00003
   1.01722  0.00258  0.00911  0.59479  0.000129  0.000057  0.014299    2.2648    1.6155  0.00002  0.00008  0.00002
   1.01942  0.00159  0.00714  0.48603  0.000119  0.000053  0.012733    2.2550    1.6170  0.00001  0.00006  0.00001
   1.02150  0.00084  0.00520  0.36178  0.000111  0.000050  0.010292    2.2403    1.6193  0.00001  0.00004  0.00000
   1.02349  0.00034  0.00328  0.22445  0.000106  0.000047  0.006724    2.2369    1.6199  0.00000  0.00002  0.00000
   1.02539  0.00006  0.00140  0.07801  0.000102  0.000046  0.002458    2.2295    1.6211  0.00000  0.00001  0.00000
   1.02720  0.00001 -0.00042 -0.07070  0.000102  0.000046  0.002228    2.2295    1.6211  0.00000 -0.00001 -0.00000
   1.02905  0.00016 -0.00225 -0.22438  0.000100  0.000045  0.007191    2.2273    1.6214  0.00000 -0.00002 -0.00000
   1.03096  0.00056 -0.00413 -0.38012  0.000103  0.000046  0.011763    2.2384    1.6196  0.00001 -0.00004 -0.00000
   1.03296  0.00122 -0.00601 -0.52739  0.000107  0.000048  0.015556    2.2436    1.6188  0.00001 -0.00006 -0.00001
   1.03504  0.00215 -0.00788 -0.65920  0.000115  0.000051  0.017835    2.2617    1.6160  0.00002 -0.00008 -0.00002
   1.03723  0.00334 -0.00971 -0.77089  0.000125  0.000055  0.018871    2.2777    1.6136  0.00003 -0.00010 -0.00004
   1.03954  0.00480 -0.01150 -0.86217  0.000138  0.000060  0.018754    2.2989    1.6104  0.00004 -0.00012 -0.00006
   1.04200  0.00653 -0.01325 -0.93478  0.000153  0.000066  0.017955    2.3201    1.6074  0.00006 -0.00014 -0.00009
   1.04462  0.00853 -0.01495 -0.99173  0.000171  0.000073  0.016751    2.3424    1.6043  0.00007 -0.00017 -0.00011
   1.04744  0.01081 -0.01661 -1.03602  0.000190  0.000080  0.015379    2.3646    1.6013  0.00009 -0.00020 -0.00014
   1.05050  0.01339 -0.01825 -1.07031  0.000211  0.000088  0.013976    2.3867    1.5984  0.00010 -0.00023 -0.00017
   1.05383  0.01631 -0.01986 -1.09678  0.000235  0.000097  0.012619    2.4085    1.5956  0.00012 -0.00026 -0.00020
   1.05750  0.01960 -0.02147 -1.11708  0.000260  0.000107  0.011346    2.4299    1.5930  0.00013 -0.00029 -0.00024
   1.06156  0.02333 -0.02307 -1.13250  0.000288  0.000117  0.010170    2.4509    1.5904  0.00015 -0.00033 -0.00027
   1.06609  0.02757 -0.02468 -1.14400  0.000318  0.000129  0.009095    2.4716    1.5880  0.00017 -0.00036 -0.00031
   1.07120  0.03242 -0.02630 -1.15228  0.000351  0.000141  0.008116    2.4921    1.5857  0.00019 -0.00040 -0.00034
   1.07700  0.03798 -0.02793 -1.15787  0.000388  0.000154  0.007226    2.5125    1.5835  0.00021 -0.00045 -0.00038
   1.08362  0.04440 -0.02958 -1.16114  0.000428  0.000169  0.006420    2.5328    1.5814  0.00023 -0.00050 -0.00042
   1.09122  0.05181 -0.03124 -1.16238  0.000473  0.000185  0.005691    2.5531    1.5793  0.00025 -0.00055 -0.00046
   1.09993  0.06036 -0.03289 -1.16183  0.000522  0.000203  0.005035    2.5736    1.5772  0.00027 -0.00061 -0.00050
   1.10983  0.07013 -0.03449 -1.15972  0.000576  0.000222  0.004451    2.5942    1.5752  0.00030 -0.00067 -0.00055
   1.12094  0.08113 -0.03602 -1.15629  0.000634  0.000243  0.003937    2.6147    1.5733  0.00032 -0.00073 -0.00059
   1.13317  0.09329 -0.03741 -1.15181  0.000696  0.000264  0.003489    2.6353    1.5714  0.00035 -0.00080 -0.00063
   1.14637  0.10643 -0.03865 -1.14659  0.000761  0.000286  0.003103    2.6557    1.5697  0.00038 -0.00087 -0.00068
   1.16035  0.12037 -0.03971 -1.14087  0.000827  0.000309  0.002772    2.6759    1.5679  0.00040 -0.00094 -0.00072
   1.17492  0.13492 -0.04058 -1.13487  0.000894  0.000332  0.002488    2.6959    1.5663  0.00043 -0.00102 -0.00076
   1.18995  0.14993 -0.04126 -1.12875  0.000962  0.000354  0.002245    2.7156    1.5647  0.00045 -0.00109 -0.00080
   1.20532  0.16529 -0.04178 -1.12260  0.001030  0.000377  0.002034    2.7351    1.5632  0.00047 -0.00116 -0.00083
   1.22096  0.18092 -0.04213 -1.11652  0.001099  0.000399  0.001852    2.7543    1.5618  0.00050 -0.00123 -0.00087
   1.23681  0.19677 -0.04235 -1.11054  0.001167  0.000421  0.001693    2.7730    1.5604  0.00052 -0.00130 -0.00090
   1.25283  0.21279 -0.04244 -1.10470  0.001234  0.000442  0.001555    2.7912    1.5591  0.00054 -0.00136 -0.00093
   1.26900  0.22896 -0.04241 -1.09903  0.001301  0.000463  0.001433    2.8088    1.5579  0.00056 -0.00143 -0.00096
   1.28529  0.24525 -0.04228 -1.09354  0.001368  0.000484  0.001327    2.8254    1.5568  0.00058 -0.00150 -0.00099
   1.30169  0.26165 -0.04206 -1.08826  0.001433  0.000504  0.001234    2.8409    1.5558  0.00060 -0.00156 -0.00101
   1.31818  0.27814 -0.04176 -1.08318  0.001497  0.000524  0.001153    2.8549    1.5549  0.00062 -0.00162 -0.00104
   1.33476  0.29471 -0.04140 -1.07834  0.001560  0.000544  0.001083    2.8670    1.5541  0.00063 -0.00168 -0.00106
   1.35141  0.31136 -0.04097 -1.07373  0.001620  0.000563  0.001024    2.8767    1.5536  0.00065 -0.00174 -0.00108
   1.36813  0.32807 -0.04049 -1.06939  0.001677  0.000582  0.000976    2.8834    1.5532  0.00067 -0.00179 -0.00110
   1.38490  0.34483 -0.03997 -1.06532  0.001731  0.000600  0.000938    2.8864    1.5530  0.00068 -0.00184 -0.00113
   1.40172  0.36165 -0.03941 -1.06157  0.001780  0.000617  0.000911    2.8846    1.5531  0.00070 -0.00189 -0.00115
   1.41857  0.37849 -0.03882 -1.05819  0.001823  0.000634  0.000896    2.8771    1.5535  0.00071 -0.00193 -0.00117
   1.43543  0.39533 -0.03820 -1.05530  0.001856  0.000649  0.000900    2.8595    1.5546  0.00072 -0.00196 -0.00119
   1.45223  0.41212 -0.03756 -1.05285  0.001881  0.000663  0.000914    2.8369    1.5560  0.00074 -0.00198 -0.00120
   1.46900  0.42888 -0.03688 -1.05016  0.001923  0.000678  0.000895    2.8347    1.5562  0.00075 -0.00202 -0.00122
   1.48578  0.44564 -0.03614 -1.04734  0.001973  0.000694  0.000861    2.8424    1.5557  0.00076 -0.00207 -0.00124
   1.50257  0.46241 -0.03537 -1.04441  0.002028  0.000710  0.000819    2.8566    1.5548  0.00077 -0.00212 -0.00126
   1.51939  0.47921 -0.03455 -1.04141  0.002087  0.000726  0.000773    2.8748    1.5537  0.00079 -0.00217 -0.00127
   1.53623  0.49603 -0.03370 -1.03837  0.002150  0.000742  0.000726    2.8956    1.5524  0.00080 -0.00223 -0.00129
   1.55310  0.51287 -0.03282 -1.03531  0.002214  0.000759  0.000680    2.9181    1.5511  0.00081 -0.00229 -0.00131
   1.56999  0.52974 -0.03190 -1.03225  0.002280  0.000775  0.000636    2.9416    1.5499  0.00083 -0.00235 -0.00132
   1.58690  0.54662 -0.03096 -1.02920  0.002348  0.000792  0.000594    2.9658    1.5486  0.00084 -0.00242 -0.00134
   1.60383  0.56353 -0.03000 -1.02617  0.002416  0.000808  0.000554    2.9903    1.5474  0.00085 -0.00248 -0.00135
   1.62078  0.58045 -0.02902 -1.02317  0.002485  0.000824  0.000516    3.0150    1.5462  0.00086 -0.00254 -0.00137
   1.63774  0.59738 -0.02801 -1.02021  0.002555  0.000840  0.000481    3.0399    1.5450  0.00087 -0.00261 -0.00138
   1.65472  0.61433 -0.02699 -1.01728  0.002625  0.000856  0.000447    3.0647    1.5439  0.00089 -0.00267 -0.00139
   1.67172  0.63130 -0.02595 -1.01440  0.002696  0.000872  0.000416    3.0896    1.5429  0.00090 -0.00273 -0.00141
   1.68872  0.64827 -0.02490 -1.01157  0.002767  0.000888  0.000387    3.1143    1.5419  0.00091 -0.00280 -0.00142
   1.70574  0.66525 -0.02384 -1.00879  0.002838  0.000904  0.000360    3.1389    1.5410  0.00092 -0.00286 -0.00143
   1.72277  0.68225 -0.02277 -1.00606  0.002909  0.000920  0.000334    3.1632    1.5401  0.00093 -0.00293 -0.00144
   1.73980  0.69925 -0.02169 -1.00339  0.002981  0.000935  0.000311    3.1870    1.5393  0.00094 -0.00299 -0.00145
   1.75684  0.71625 -0.02060 -1.00078  0.003051  0.000951  0.000289    3.2100    1.5385  0.00095 -0.00305 -0.00147
   1.77389  0.73326 -0.01950 -0.99823  0.003121  0.000966  0.000270    3.2317    1.5379  0.00096 -0.00312 -0.00148
   1.79094  0.75027 -0.01839 -0.99575  0.003188  0.000981  0.000253    3.2514    1.5373  0.00097 -0.00317 -0.00149
   1.80799  0.76729 -0.01728 -0.99335  0.003252  0.000995  0.000238    3.2678    1.5368  0.00098 -0.00323 -0.00150
   1.82504  0.78430 -0.01616 -0.99105  0.003310  0.001010  0.000228    3.2791    1.5365  0.00099 -0.00328 -0.00151
   1.84209  0.80132 -0.01503 -0.98886  0.003359  0.001023  0.000223    3.2823    1.5364  0.00100 -0.00332 -0.00152
   1.85914  0.81833 -0.01390 -0.98683  0.003392  0.001037  0.000225    3.2726    1.5367  0.00101 -0.00335 -0.00153
   1.87618  0.83534 -0.01276 -0.98506  0.003398  0.001048  0.000240    3.2413    1.5376  0.00102 -0.00335 -0.00154
   1.89322  0.85233 -0.01162 -0.98379  0.003354  0.001058  0.000280    3.1711    1.5398  0.00102 -0.00330 -0.00155
   1.91023  0.86931 -0.01047 -0.97411  0.003190  0.001115  0.000482    2.8610    1.5298  0.00106 -0.00311 -0.00158
   1.92721  0.88624 -0.00931 -0.96211  0.002964  0.001187  0.000799    2.4964    1.5559  0.00110 -0.00285 -0.00165
   1.94411  0.90311 -0.00815 -0.95107  0.002749  0.001258  0.001245    2.1857    1.5917  0.00114 -0.00261 -0.00172
   1.96087  0.91982 -0.00699 -0.94209  0.002594  0.001322  0.001746    1.9625    1.6279  0.00117 -0.00244 -0.00180
   1.97732  0.93623 -0.00584 -0.93431  0.002512  0.001383  0.002161    1.8160    1.6577  0.00121 -0.00235 -0.00187
   1.99319  0.95207 -0.00472 -0.92646  0.002500  0.001450  0.002439    1.7247    1.6790  0.00124 -0.00232 -0.00194
   2.00805  0.96689 -0.00367 -0.91757  0.002549  0.001525  0.002574    1.6722    1.6919  0.00128 -0.00234 -0.00199
   2.02139  0.98019 -0.00271 -0.90730  0.002651  0.001610  0.002585    1.6470    1.6977  0.00133 -0.00241 -0.00204
   2.03285  0.99163 -0.00187 -0.89491  0.002814  0.001711  0.002483    1.6450    1.6968  0.00137 -0.00252 -0.00208
   2.04125  1.00000 -0.00126 -0.88716  0.002920  0.001779  0.002431    1.6411    1.6971  0.00140 -0.00259 -0.00211
   2.04125  1.00010 -0.00001  0.88716  0.010179  0.004641  0.000000    2.1933
   2.04963  1.00847 -0.00054  0.86581  0.008960  0.005113  0.000000    1.7525
   2.05919  1.01800 -0.00107  0.88075  0.007873  0.004799  0.000000    1.6405
   2.07007  1.02887 -0.00164  0.89466  0.007042  0.004536  0.000000    1.5523
   2.08247  1.04126 -0.00225  0.90718  0.006396  0.004320  0.000000    1.4804
   2.09659  1.05537 -0.00290  0.91826  0.005883  0.004143  0.000000    1.4200
   2.11268  1.07144 -0.00361  0.92801  0.005467  0.003997  0.000000    1.3677
   2.13102  1.08976 -0.00437  0.93659  0.005123  0.003876  0.000000    1.3217
   2.15190  1.11063 -0.00520  0.94416  0.004834  0.003774  0.000000    1.2808
   2.17570  1.13441 -0.00609  0.95087  0.004588  0.003688  0.000000    1.2440
   2.20281  1.16150 -0.00704  0.95686  0.004376  0.003614  0.000000    1.2110
   2.23369  1.19237 -0.00807  0.96221  0.004194  0.003550  0.000000    1.1815
   2.26888  1.22753 -0.00917  0.96701  0.004037  0.003495  0.000000    1.1552
   2.30896  1.26760 -0.01034  0.97130  0.003902  0.003446  0.000000    1.1321
   2.35463  1.31325 -0.01160  0.97515  0.003785  0.003404  0.000000    1.1120
   2.40666  1.36526 -0.01294  0.97858  0.003686  0.003367  0.000000    1.0948
   2.46593  1.42452 -0.01436  0.98163  0.003602  0.003335  0.000000    1.0801
   2.53346  1.49203 -0.01586  0.98433  0.003531  0.003307  0.000000    1.0677
