#    s        x        y     Ue/Vinf    Dstar     Theta      Cf       H       H*        P         m          K          tau         Di
   0.00000  1.00000  0.00126  0.89623  0.010447  0.005325  0.000726    1.9618    1.8665  0.00428  0.00936  0.00716
   0.00837  0.99180  0.00295  0.90615  0.009656  0.005084  0.000828    1.8993    1.8960  0.00417  0.00875  0.00717
   0.01972  0.98067  0.00521  0.91954  0.008747  0.004782  0.000965    1.8289    1.9342  0.00404  0.00804  0.00719
   0.03284  0.96782  0.00778  0.93626  0.007829  0.004446  0.001161    1.7609    1.9707  0.00390  0.00733  0.00719
   0.04736  0.95357  0.01057  0.95225  0.007087  0.004150  0.001332    1.7077    2.0068  0.00376  0.00675  0.00719
   0.06282  0.93838  0.01349  0.97012  0.006406  0.003856  0.001555    1.6614    2.0334  0.00363  0.00621  0.00716
   0.07882  0.92265  0.01644  0.98766  0.005840  0.003594  0.001787    1.6248    2.0520  0.00351  0.00577  0.00711
   0.09511  0.90663  0.01939  1.00312  0.005397  0.003378  0.001981    1.5977    2.0688  0.00340  0.00541  0.00705
   0.11155  0.89046  0.02230  1.01607  0.005054  0.003202  0.002118    1.5783    2.0869  0.00331  0.00514  0.00701
   0.12806  0.87420  0.02515  1.02931  0.004743  0.003037  0.002283    1.5619    2.0967  0.00322  0.00488  0.00694
   0.14460  0.85789  0.02795  1.04528  0.004420  0.002861  0.002560    1.5448    2.0880  0.00313  0.00462  0.00682
   0.16116  0.84156  0.03068  1.05880  0.004161  0.002716  0.002782    1.5322    2.0826  0.00304  0.00441  0.00671
   0.17773  0.82520  0.03335  1.07209  0.003923  0.002580  0.003015    1.5205    2.0748  0.00297  0.00421  0.00660
   0.19431  0.80884  0.03596  1.08287  0.003731  0.002468  0.003166    1.5122    2.0773  0.00289  0.00404  0.00651
   0.21089  0.79245  0.03851  1.09248  0.003563  0.002366  0.003275    1.5056    2.0851  0.00282  0.00389  0.00643
   0.22746  0.77606  0.04099  1.10160  0.003407  0.002271  0.003368    1.4999    2.0943  0.00276  0.00375  0.00636
   0.24404  0.75966  0.04340  1.11054  0.003260  0.002181  0.003457    1.4949    2.1031  0.00269  0.00362  0.00628
   0.26062  0.74326  0.04576  1.11942  0.003120  0.002094  0.003545    1.4904    2.1109  0.00262  0.00349  0.00620
   0.27719  0.72684  0.04804  1.12822  0.002987  0.002010  0.003633    1.4865    2.1177  0.00256  0.00337  0.00611
   0.29375  0.71043  0.05026  1.13680  0.002862  0.001930  0.003713    1.4834    2.1243  0.00249  0.00325  0.00602
   0.31031  0.69401  0.05242  1.14576  0.002739  0.001850  0.003808    1.4805    2.1283  0.00243  0.00314  0.00592
   0.32687  0.67758  0.05450  1.15425  0.002625  0.001775  0.003882    1.4786    2.1337  0.00236  0.00303  0.00582
   0.34341  0.66116  0.05652  1.16281  0.002514  0.001702  0.003954    1.4772    2.1388  0.00230  0.00292  0.00572
   0.35995  0.64474  0.05847  1.17010  0.002416  0.001635  0.003962    1.4773    2.1495  0.00224  0.00283  0.00563
   0.37648  0.62832  0.06035  1.17614  0.002331  0.001575  0.003907    1.4795    2.1639  0.00218  0.00274  0.00555
   0.39299  0.61191  0.06215  1.18258  0.002252  0.001517  0.003872    1.4846    2.1706  0.00212  0.00266  0.00544
   0.40949  0.59550  0.06388  1.20155  0.002108  0.001418  0.004424    1.4867    2.1216  0.00205  0.00253  0.00522
   0.42598  0.57909  0.06553  1.20994  0.002027  0.001356  0.004508    1.4942    2.1154  0.00199  0.00245  0.00508
   0.44245  0.56270  0.06711  1.21145  0.001990  0.001318  0.004238    1.5099    2.1351  0.00193  0.00241  0.00500
   0.45890  0.54631  0.06860  1.26017  0.001686  0.001144  0.006941    1.4746    1.9166  0.00182  0.00212  0.00439
   0.47533  0.52994  0.07002  1.26437  0.001626  0.001096  0.006990    1.4834    1.9265  0.00175  0.00206  0.00427
   0.49174  0.51358  0.07135  1.27264  0.001544  0.001037  0.007263    1.4887    1.9254  0.00168  0.00197  0.00412
   0.50813  0.49724  0.07259  1.27092  0.001528  0.001005  0.006621    1.5204    1.9887  0.00162  0.00194  0.00410
   0.52450  0.48092  0.07374  1.27278  0.001504  0.000965  0.006129    1.5591    2.0326  0.00156  0.00191  0.00404
   0.54083  0.46462  0.07480  1.28025  0.001467  0.000914  0.005920    1.6053    2.0449  0.00150  0.00188  0.00392
   0.55713  0.44834  0.07576  1.32971  0.001176  0.000772  0.010227    1.5222    1.7754  0.00137  0.00156  0.00322
   0.57339  0.43211  0.07663  1.33320  0.001157  0.000733  0.010461    1.5792    1.7658  0.00130  0.00154  0.00307
   0.58960  0.41592  0.07738  1.32649  0.001276  0.000725  0.008874    1.7613    1.8069  0.00128  0.00169  0.00306
   0.60571  0.39982  0.07804  1.32776  0.001539  0.000713  0.006416    2.1585    1.8634  0.00126  0.00204  0.00311
   0.62170  0.38384  0.07856  1.35210  0.001807  0.000660  0.004735    2.7382    1.8328  0.00121  0.00244  0.00299
   0.63761  0.36794  0.07893  1.39588  0.002118  0.000568  0.002776    3.7285    1.8624  0.00111  0.00296  0.00288
   0.65345  0.35210  0.07916  1.38002  0.002267  0.000606 -0.000022    3.7402    1.5291  0.00115  0.00313  0.00244
   0.66923  0.33632  0.07922  1.38746  0.002045  0.000587  0.000370    3.4827    1.5313  0.00113  0.00284  0.00240
   0.68496  0.32059  0.07913  1.39470  0.001929  0.000569  0.000495    3.3865    1.5340  0.00111  0.00269  0.00237
   0.70063  0.30492  0.07888  1.40215  0.001827  0.000552  0.000595    3.3129    1.5372  0.00108  0.00256  0.00234
   0.71624  0.28931  0.07846  1.40981  0.001734  0.000534  0.000688    3.2494    1.5406  0.00106  0.00244  0.00230
   0.73180  0.27377  0.07787  1.41770  0.001646  0.000516  0.000785    3.1924    1.5442  0.00104  0.00233  0.00227
   0.74728  0.25831  0.07709  1.42581  0.001562  0.000497  0.000890    3.1407    1.5476  0.00101  0.00223  0.00223
   0.76269  0.24293  0.07614  1.43415  0.001482  0.000479  0.001004    3.0938    1.5509  0.00099  0.00213  0.00219
   0.77801  0.22765  0.07499  1.44269  0.001406  0.000461  0.001129    3.0518    1.5540  0.00096  0.00203  0.00215
   0.79324  0.21248  0.07364  1.45145  0.001333  0.000442  0.001262    3.0145    1.5568  0.00093  0.00194  0.00211
   0.80835  0.19745  0.07210  1.46043  0.001264  0.000424  0.001404    2.9817    1.5594  0.00090  0.00185  0.00206
   0.82334  0.18256  0.07034  1.46965  0.001197  0.000405  0.001554    2.9531    1.5617  0.00088  0.00176  0.00201
   0.83818  0.16785  0.06837  1.47914  0.001132  0.000387  0.001713    2.9285    1.5638  0.00085  0.00167  0.00196
   0.85283  0.15336  0.06618  1.48897  0.001070  0.000368  0.001880    2.9075    1.5656  0.00082  0.00159  0.00190
   0.86726  0.13914  0.06378  1.49919  0.001009  0.000349  0.002057    2.8898    1.5671  0.00078  0.00151  0.00184
   0.88139  0.12525  0.06115  1.50988  0.000949  0.000330  0.002247    2.8750    1.5684  0.00075  0.00143  0.00178
   0.89514  0.11179  0.05832  1.52113  0.000889  0.000311  0.002454    2.8627    1.5695  0.00072  0.00135  0.00172
   0.90840  0.09889  0.05531  1.53301  0.000831  0.000291  0.002683    2.8521    1.5704  0.00068  0.00127  0.00165
   0.92101  0.08668  0.05215  1.54555  0.000773  0.000272  0.002943    2.8427    1.5711  0.00065  0.00120  0.00158
   0.93281  0.07533  0.04890  1.55873  0.000717  0.000253  0.003244    2.8334    1.5717  0.00061  0.00112  0.00151
   0.94366  0.06499  0.04563  1.57244  0.000662  0.000234  0.003599    2.8232    1.5723  0.00058  0.00104  0.00143
   0.95345  0.05575  0.04241  1.58650  0.000609  0.000217  0.004023    2.8112    1.5729  0.00055  0.00097  0.00136
   0.96216  0.04761  0.03929  1.60068  0.000559  0.000200  0.004533    2.7965    1.5736  0.00051  0.00089  0.00129
   0.96984  0.04054  0.03631  1.61477  0.000511  0.000184  0.005147    2.7787    1.5746  0.00048  0.00083  0.00122
   0.97658  0.03441  0.03349  1.62852  0.000467  0.000169  0.005885    2.7576    1.5757  0.00045  0.00076  0.00115
   0.98251  0.02911  0.03083  1.64173  0.000426  0.000156  0.006772    2.7333    1.5770  0.00042  0.00070  0.00109
   0.98774  0.02453  0.02830  1.65414  0.000387  0.000143  0.007834    2.7061    1.5786  0.00039  0.00064  0.00102
   0.99240  0.02055  0.02589  1.66544  0.000351  0.000131  0.009105    2.6761    1.5805  0.00036  0.00058  0.00096
   0.99656  0.01707  0.02360  1.67524  0.000317  0.000120  0.010624    2.6435    1.5826  0.00034  0.00053  0.00089
   1.00032  0.01404  0.02138  1.68296  0.000286  0.000110  0.012436    2.6089    1.5850  0.00031  0.00048  0.00083
   1.00373  0.01138  0.01924  1.68780  0.000257  0.000100  0.014588    2.5724    1.5877  0.00029  0.00043  0.00076
   1.00685  0.00906  0.01715  1.68864  0.000231  0.000091  0.017127    2.5344    1.5906  0.00026  0.00039  0.00070
   1.00973  0.00704  0.01510  1.68396  0.000206  0.000083  0.020088    2.4955    1.5937  0.00023  0.00035  0.00063
   1.01240  0.00530  0.01308  1.67166  0.000184  0.000075  0.023474    2.4561    1.5970  0.00021  0.00031  0.00056
   1.01488  0.00381  0.01109  1.64902  0.000165  0.000068  0.027223    2.4169    1.6005  0.00019  0.00027  0.00049
   1.01722  0.00258  0.00911  1.61271  0.000147  0.000062  0.031158    2.3788    1.6040  0.00016  0.00024  0.00042
   1.01942  0.00159  0.00714  1.55905  0.000133  0.000057  0.034950    2.3426    1.6075  0.00014  0.00021  0.00034
   1.02150  0.00084  0.00520  1.48479  0.000121  0.000052  0.038056    2.3098    1.6106  0.00012  0.00018  0.00028
   1.02349  0.00034  0.00328  1.38818  0.000111  0.000049  0.039941    2.2805    1.6134  0.00009  0.00015  0.00021
   1.02539  0.00006  0.00140  1.27056  0.000105  0.000047  0.039852    2.2596    1.6150  0.00008  0.00013  0.00015
   1.02720  0.00001 -0.00042  1.13831  0.000101  0.000045  0.037875    2.2480    1.6150  0.00006  0.00012  0.00011
   1.02905  0.00016 -0.00225  0.98924  0.000098  0.000044  0.034696    2.2357    1.6155  0.00004  0.00010  0.00007
   1.03096  0.00056 -0.00413  0.82129  0.000098  0.000044  0.029847    2.2220    1.6157  0.00003  0.00008  0.00004
   1.03296  0.00122 -0.00601  0.64366  0.000100  0.000045  0.023646    2.2209    1.6148  0.00002  0.00006  0.00002
   1.03504  0.00215 -0.00788  0.46547  0.000103  0.000047  0.017117    2.2101    1.6146  0.00001  0.00005  0.00001
   1.03723  0.00334 -0.00971  0.29698  0.000110  0.000050  0.010915    2.2266    1.6124  0.00000  0.00003  0.00000
   1.03954  0.00480 -0.01150  0.14259  0.000117  0.000053  0.005802    2.2176    1.6385  0.00000  0.00002  0.00000
   1.04200  0.00653 -0.01325  0.00741  0.000135  0.000061  0.001775    2.2295    1.5830  0.00000  0.00000  0.00000
   1.04462  0.00853 -0.01495 -0.11291  0.000135  0.000061  0.001281    2.2295    1.5830  0.00000 -0.00002 -0.00000
   1.04744  0.01081 -0.01661 -0.21792  0.000157  0.000069  0.003239    2.2734    1.6222  0.00000 -0.00003 -0.00000
   1.05050  0.01339 -0.01825 -0.30746  0.000169  0.000076  0.004826    2.2376    1.6088  0.00001 -0.00005 -0.00000
   1.05383  0.01631 -0.01986 -0.38707  0.000188  0.000082  0.005659    2.2773    1.5954  0.00001 -0.00007 -0.00001
   1.05750  0.01960 -0.02147 -0.45565  0.000205  0.000090  0.006191    2.2739    1.6017  0.00002 -0.00009 -0.00001
   1.06156  0.02333 -0.02307 -0.51706  0.000225  0.000098  0.006542    2.2896    1.5961  0.00003 -0.00012 -0.00002
   1.06609  0.02757 -0.02468 -0.57110  0.000248  0.000108  0.006505    2.3010    1.5964  0.00004 -0.00014 -0.00003
   1.07120  0.03242 -0.02630 -0.61963  0.000271  0.000117  0.006518    2.3107    1.5942  0.00005 -0.00017 -0.00004
   1.07700  0.03798 -0.02793 -0.66305  0.000298  0.000128  0.006277    2.3237    1.5929  0.00006 -0.00020 -0.00006
   1.08362  0.04440 -0.02958 -0.70213  0.000328  0.000140  0.006052    2.3346    1.5914  0.00007 -0.00023 -0.00008
   1.09122  0.05181 -0.03124 -0.73719  0.000360  0.000154  0.005728    2.3471    1.5900  0.00008 -0.00027 -0.00010
   1.09993  0.06036 -0.03289 -0.76845  0.000396  0.000168  0.005393    2.3593    1.5886  0.00010 -0.00030 -0.00012
   1.10983  0.07013 -0.03449 -0.79599  0.000436  0.000184  0.005035    2.3718    1.5873  0.00012 -0.00035 -0.00015
   1.12094  0.08113 -0.03602 -0.81986  0.000479  0.000201  0.004680    2.3843    1.5860  0.00013 -0.00039 -0.00018
   1.13317  0.09329 -0.03741 -0.84017  0.000524  0.000219  0.004339    2.3967    1.5848  0.00015 -0.00044 -0.00021
   1.14637  0.10643 -0.03865 -0.85715  0.000571  0.000237  0.004021    2.4087    1.5836  0.00017 -0.00049 -0.00024
   1.16035  0.12037 -0.03971 -0.87115  0.000620  0.000256  0.003730    2.4203    1.5825  0.00019 -0.00054 -0.00027
   1.17492  0.13492 -0.04058 -0.88260  0.000668  0.000275  0.003468    2.4315    1.5815  0.00021 -0.00059 -0.00030
   1.18995  0.14993 -0.04126 -0.89192  0.000717  0.000294  0.003234    2.4422    1.5806  0.00023 -0.00064 -0.00033
   1.20532  0.16529 -0.04178 -0.89948  0.000766  0.000312  0.003024    2.4524    1.5797  0.00025 -0.00069 -0.00036
   1.22096  0.18092 -0.04213 -0.90563  0.000814  0.000331  0.002837    2.4622    1.5790  0.00027 -0.00074 -0.00039
   1.23681  0.19677 -0.04235 -0.91062  0.000862  0.000349  0.002670    2.4715    1.5782  0.00029 -0.00078 -0.00042
   1.25283  0.21279 -0.04244 -0.91467  0.000909  0.000367  0.002520    2.4802    1.5776  0.00031 -0.00083 -0.00044
   1.26900  0.22896 -0.04241 -0.91797  0.000956  0.000384  0.002385    2.4885    1.5770  0.00032 -0.00088 -0.00047
   1.28529  0.24525 -0.04228 -0.92065  0.001002  0.000401  0.002264    2.4961    1.5765  0.00034 -0.00092 -0.00049
   1.30169  0.26165 -0.04206 -0.92285  0.001047  0.000418  0.002155    2.5031    1.5761  0.00036 -0.00097 -0.00052
   1.31818  0.27814 -0.04176 -0.92466  0.001091  0.000435  0.002058    2.5093    1.5758  0.00037 -0.00101 -0.00054
   1.33476  0.29471 -0.04140 -0.92617  0.001134  0.000451  0.001970    2.5147    1.5756  0.00039 -0.00105 -0.00056
   1.35141  0.31136 -0.04097 -0.92746  0.001176  0.000467  0.001893    2.5190    1.5756  0.00040 -0.00109 -0.00059
   1.36813  0.32807 -0.04049 -0.92860  0.001216  0.000482  0.001825    2.5221    1.5757  0.00042 -0.00113 -0.00061
   1.38490  0.34483 -0.03997 -0.92967  0.001255  0.000497  0.001766    2.5236    1.5760  0.00043 -0.00117 -0.00063
   1.40172  0.36165 -0.03941 -0.93074  0.001291  0.000511  0.001718    2.5231    1.5765  0.00044 -0.00120 -0.00065
   1.41857  0.37849 -0.03882 -0.93191  0.001323  0.000525  0.001680    2.5200    1.5774  0.00046 -0.00123 -0.00067
   1.43543  0.39533 -0.03820 -0.93343  0.001350  0.000537  0.001663    2.5108    1.5791  0.00047 -0.00126 -0.00069
   1.45223  0.41212 -0.03756 -0.93528  0.001371  0.000549  0.001657    2.4985    1.5811  0.00048 -0.00128 -0.00071
   1.46900  0.42888 -0.03688 -0.93650  0.001404  0.000561  0.001612    2.5018    1.5814  0.00049 -0.00132 -0.00073
   1.48578  0.44564 -0.03614 -0.93733  0.001442  0.000574  0.001556    2.5100    1.5812  0.00050 -0.00135 -0.00075
   1.50257  0.46241 -0.03537 -0.93784  0.001481  0.000588  0.001497    2.5202    1.5807  0.00052 -0.00139 -0.00077
   1.51939  0.47921 -0.03455 -0.93812  0.001521  0.000601  0.001438    2.5309    1.5802  0.00053 -0.00143 -0.00078
   1.53623  0.49603 -0.03370 -0.93819  0.001562  0.000615  0.001382    2.5414    1.5799  0.00054 -0.00147 -0.00080
   1.55310  0.51287 -0.03282 -0.93811  0.001602  0.000628  0.001329    2.5514    1.5796  0.00055 -0.00150 -0.00082
   1.56999  0.52974 -0.03190 -0.93789  0.001643  0.000641  0.001279    2.5607    1.5796  0.00056 -0.00154 -0.00084
   1.58690  0.54662 -0.03096 -0.93757  0.001682  0.000655  0.001233    2.5693    1.5796  0.00058 -0.00158 -0.00085
   1.60383  0.56353 -0.03000 -0.93716  0.001722  0.000668  0.001188    2.5775    1.5798  0.00059 -0.00161 -0.00087
   1.62078  0.58045 -0.02902 -0.93667  0.001761  0.000681  0.001145    2.5851    1.5802  0.00060 -0.00165 -0.00088
   1.63774  0.59738 -0.02801 -0.93610  0.001800  0.000695  0.001103    2.5924    1.5808  0.00061 -0.00169 -0.00090
   1.65472  0.61433 -0.02699 -0.93548  0.001839  0.000708  0.001063    2.5995    1.5816  0.00062 -0.00172 -0.00092
   1.67172  0.63130 -0.02595 -0.93479  0.001878  0.000721  0.001024    2.6064    1.5825  0.00063 -0.00176 -0.00093
   1.68872  0.64827 -0.02490 -0.93405  0.001917  0.000734  0.000985    2.6129    1.5836  0.00064 -0.00179 -0.00095
   1.70574  0.66525 -0.02384 -0.93326  0.001956  0.000747  0.000947    2.6194    1.5848  0.00065 -0.00183 -0.00096
   1.72277  0.68225 -0.02277 -0.93242  0.001995  0.000760  0.000908    2.6260    1.5863  0.00066 -0.00186 -0.00098
   1.73980  0.69925 -0.02169 -0.93150  0.002034  0.000773  0.000868    2.6327    1.5881  0.00067 -0.00189 -0.00099
   1.75684  0.71625 -0.02060 -0.93052  0.002074  0.000786  0.000825    2.6398    1.5902  0.00068 -0.00193 -0.00101
   1.77389  0.73326 -0.01950 -0.92945  0.002115  0.000799  0.000779    2.6472    1.5927  0.00069 -0.00197 -0.00102
   1.79094  0.75027 -0.01839 -0.92830  0.002157  0.000812  0.000729    2.6552    1.5957  0.00070 -0.00200 -0.00104
   1.80799  0.76729 -0.01728 -0.92702  0.002199  0.000826  0.000674    2.6630    1.5992  0.00071 -0.00204 -0.00105
   1.82504  0.78430 -0.01616 -0.92561  0.002242  0.000840  0.000614    2.6702    1.6032  0.00072 -0.00208 -0.00107
   1.84209  0.80132 -0.01503 -0.92402  0.002284  0.000854  0.000547    2.6754    1.6075  0.00073 -0.00211 -0.00108
   1.85914  0.81833 -0.01390 -0.92217  0.002326  0.000869  0.000473    2.6768    1.6117  0.00074 -0.00214 -0.00110
   1.87618  0.83534 -0.01276 -0.91989  0.002367  0.000886  0.000385    2.6729    1.6146  0.00075 -0.00218 -0.00111
   1.89322  0.85233 -0.01162 -0.91675  0.002413  0.000906  0.000276    2.6632    1.6130  0.00076 -0.00221 -0.00113
   1.91023  0.86931 -0.01047 -0.91211  0.002481  0.000934  0.000140    2.6563    1.5996  0.00078 -0.00226 -0.00113
   1.92721  0.88624 -0.00931 -0.90664  0.002594  0.000967  0.000010    2.6816    1.5751  0.00080 -0.00235 -0.00114
   1.94411  0.90311 -0.00815 -0.90243  0.002795  0.000994 -0.000080    2.8122    1.5585  0.00081 -0.00252 -0.00114
   1.96087  0.91982 -0.00699 -0.89880  0.003109  0.001018 -0.000117    3.0553    1.5436  0.00082 -0.00279 -0.00114
   1.97732  0.93623 -0.00584 -0.89592  0.003541  0.001038 -0.000117    3.4104    1.5294  0.00083 -0.00317 -0.00114
   1.99319  0.95207 -0.00472 -0.89405  0.004089  0.001054 -0.000110    3.8798    1.5194  0.00084 -0.00366 -0.00114
   2.00805  0.96689 -0.00367 -0.89303  0.004741  0.001064 -0.000106    4.4554    1.5140  0.00085 -0.00423 -0.00115
   2.02139  0.98019 -0.00271 -0.89262  0.005446  0.001069 -0.000103    5.0921    1.5127  0.00085 -0.00486 -0.00115
   2.03285  0.99163 -0.00187 -0.89260  0.006166  0.001071 -0.000102    5.7560    1.5145  0.00085 -0.00550 -0.00115
   2.04125  1.00000 -0.00126 -0.89658  0.009689  0.001036 -0.000108    9.3508    1.5705  0.00083 -0.00869 -0.00117
   2.04125  1.00010 -0.00001  0.89997  0.022611  0.006382  0.000000    3.5431
   2.04963  1.00847 -0.00053  0.91230  0.012100  0.006070  0.000000    1.9935
   2.05919  1.01801 -0.00099  0.91507  0.011267  0.005997  0.000000    1.8789
   2.07007  1.02888 -0.00145  0.91892  0.010442  0.005900  0.000000    1.7698
   2.08247  1.04127 -0.00190  0.92368  0.009666  0.005787  0.000000    1.6701
   2.09659  1.05539 -0.00235  0.92903  0.008958  0.005668  0.000000    1.5805
   2.11268  1.07148 -0.00277  0.93460  0.008329  0.005551  0.000000    1.5006
   2.13102  1.08981 -0.00317  0.94014  0.007776  0.005439  0.000000    1.4297
   2.15190  1.11069 -0.00352  0.94554  0.007294  0.005335  0.000000    1.3673
   2.17570  1.13448 -0.00382  0.95071  0.006873  0.005238  0.000000    1.3121
   2.20281  1.16159 -0.00404  0.95561  0.006507  0.005150  0.000000    1.2634
   2.23369  1.19247 -0.00415  0.96023  0.006189  0.005070  0.000000    1.2206
   2.26888  1.22766 -0.00412  0.96455  0.005916  0.004997  0.000000    1.1839
   2.30896  1.26774 -0.00390  0.96856  0.005683  0.004931  0.000000    1.1523
   2.35463  1.31341 -0.00346  0.97226  0.005484  0.004872  0.000000    1.1256
   2.40666  1.36543 -0.00273  0.97564  0.005317  0.004819  0.000000    1.1033
   2.46593  1.42469 -0.00164  0.97871  0.005176  0.004771  0.000000    1.0849
   2.53346  1.49221 -0.00011  0.98148  0.005059  0.004729  0.000000    1.0698
