#    s        x        y     Ue/Vinf    Dstar     Theta      Cf       H       H*        P         m          K          tau         Di
   0.00000  1.00000  0.00126  0.89027  0.010750  0.005612  0.000359    1.9156    1.5914  0.00445  0.00957  0.00630
   0.00837  0.99180  0.00295  0.90177  0.009870  0.005337  0.000421    1.8493    1.6058  0.00434  0.00890  0.00628
   0.01972  0.98067  0.00521  0.91817  0.008824  0.004979  0.000510    1.7722    1.6246  0.00420  0.00810  0.00626
   0.03284  0.96782  0.00778  0.93713  0.007842  0.004609  0.000613    1.7014    1.6438  0.00405  0.00735  0.00624
   0.04736  0.95357  0.01057  0.95752  0.006979  0.004254  0.000724    1.6406    1.6620  0.00390  0.00668  0.00621
   0.06282  0.93838  0.01349  0.97814  0.006256  0.003932  0.000838    1.5909    1.6782  0.00376  0.00612  0.00618
   0.07882  0.92265  0.01644  0.99813  0.005664  0.003651  0.000948    1.5513    1.6920  0.00364  0.00565  0.00614
   0.09511  0.90663  0.01939  1.01707  0.005181  0.003409  0.001053    1.5198    1.7036  0.00353  0.00527  0.00611
   0.11155  0.89046  0.02230  1.03486  0.004782  0.003199  0.001152    1.4946    1.7132  0.00343  0.00495  0.00607
   0.12806  0.87420  0.02515  1.05156  0.004448  0.003017  0.001245    1.4743    1.7213  0.00334  0.00468  0.00604
   0.14460  0.85789  0.02795  1.06729  0.004163  0.002856  0.001333    1.4576    1.7281  0.00325  0.00444  0.00600
   0.16116  0.84156  0.03068  1.08218  0.003917  0.002713  0.001416    1.4437    1.7338  0.00318  0.00424  0.00596
   0.17773  0.82520  0.03335  1.09636  0.003701  0.002585  0.001494    1.4320    1.7388  0.00311  0.00406  0.00592
   0.19431  0.80884  0.03596  1.10995  0.003509  0.002468  0.001570    1.4221    1.7431  0.00304  0.00389  0.00588
   0.21089  0.79245  0.03851  1.12303  0.003336  0.002360  0.001642    1.4135    1.7468  0.00298  0.00375  0.00584
   0.22746  0.77606  0.04099  1.13570  0.003179  0.002261  0.001713    1.4061    1.7501  0.00292  0.00361  0.00580
   0.24404  0.75966  0.04340  1.14803  0.003035  0.002168  0.001781    1.3997    1.7530  0.00286  0.00348  0.00575
   0.26062  0.74326  0.04576  1.16008  0.002902  0.002082  0.001848    1.3940    1.7556  0.00280  0.00337  0.00571
   0.27719  0.72684  0.04804  1.17190  0.002778  0.002000  0.001914    1.3890    1.7578  0.00275  0.00326  0.00566
   0.29375  0.71043  0.05026  1.18354  0.002662  0.001923  0.001979    1.3846    1.7599  0.00269  0.00315  0.00561
   0.31031  0.69401  0.05242  1.19504  0.002553  0.001849  0.002044    1.3806    1.7617  0.00264  0.00305  0.00556
   0.32687  0.67758  0.05450  1.20644  0.002450  0.001779  0.002108    1.3771    1.7633  0.00259  0.00296  0.00551
   0.34341  0.66116  0.05652  1.21778  0.002352  0.001712  0.002172    1.3739    1.7648  0.00254  0.00286  0.00546
   0.35995  0.64474  0.05847  1.22908  0.002259  0.001648  0.002236    1.3711    1.7662  0.00249  0.00278  0.00540
   0.37648  0.62832  0.06035  1.24038  0.002170  0.001585  0.002301    1.3685    1.7674  0.00244  0.00269  0.00535
   0.39299  0.61191  0.06215  1.25170  0.002084  0.001525  0.002366    1.3662    1.7685  0.00239  0.00261  0.00529
   0.40949  0.59550  0.06388  1.26307  0.002002  0.001467  0.002433    1.3641    1.7695  0.00234  0.00253  0.00523
   0.42598  0.57909  0.06553  1.27452  0.001922  0.001411  0.002500    1.3622    1.7704  0.00229  0.00245  0.00517
   0.44245  0.56270  0.06711  1.28607  0.001845  0.001356  0.002568    1.3604    1.7712  0.00224  0.00237  0.00511
   0.45890  0.54631  0.06860  1.29776  0.001771  0.001303  0.002638    1.3588    1.7720  0.00219  0.00230  0.00505
   0.47533  0.52994  0.07002  1.30960  0.001698  0.001251  0.002710    1.3573    1.7727  0.00215  0.00222  0.00498
   0.49174  0.51358  0.07135  1.32163  0.001628  0.001201  0.002784    1.3560    1.7734  0.00210  0.00215  0.00492
   0.50813  0.49724  0.07259  1.33389  0.001559  0.001151  0.002861    1.3546    1.7740  0.00205  0.00208  0.00485
   0.52450  0.48092  0.07374  1.34642  0.001492  0.001103  0.002941    1.3534    1.7746  0.00200  0.00201  0.00478
   0.54083  0.46462  0.07480  1.35926  0.001426  0.001055  0.003025    1.3521    1.7753  0.00195  0.00194  0.00470
   0.55713  0.44834  0.07576  1.37248  0.001362  0.001008  0.003113    1.3507    1.7760  0.00190  0.00187  0.00463
   0.57339  0.43211  0.07663  1.38620  0.001298  0.000962  0.003207    1.3492    1.7767  0.00185  0.00180  0.00455
   0.58960  0.41592  0.07738  1.40052  0.001234  0.000916  0.003310    1.3473    1.7776  0.00180  0.00173  0.00447
   0.60571  0.39982  0.07804  1.41629  0.001168  0.000869  0.003430    1.3444    1.7791  0.00174  0.00165  0.00439
   0.62170  0.38384  0.07856  1.43235  0.001104  0.000823  0.003558    1.3414    1.7806  0.00169  0.00158  0.00431
   0.63761  0.36794  0.07893  1.44728  0.001047  0.000781  0.003674    1.3395    1.7815  0.00164  0.00152  0.00422
   0.65345  0.35210  0.07916  1.46207  0.000992  0.000742  0.003791    1.3381    1.7822  0.00159  0.00145  0.00413
   0.66923  0.33632  0.07922  1.47681  0.000940  0.000703  0.003909    1.3369    1.7828  0.00153  0.00139  0.00404
   0.68496  0.32059  0.07913  1.49160  0.000890  0.000666  0.004030    1.3360    1.7833  0.00148  0.00133  0.00394
   0.70063  0.30492  0.07888  1.50654  0.000842  0.000631  0.004153    1.3354    1.7836  0.00143  0.00127  0.00385
   0.71624  0.28931  0.07846  1.52169  0.000795  0.000596  0.004280    1.3349    1.7838  0.00138  0.00121  0.00375
   0.73180  0.27377  0.07787  1.53712  0.000750  0.000562  0.004412    1.3347    1.7840  0.00133  0.00115  0.00364
   0.74728  0.25831  0.07709  1.55289  0.000706  0.000529  0.004550    1.3346    1.7840  0.00128  0.00110  0.00353
   0.76269  0.24293  0.07614  1.56909  0.000663  0.000496  0.004694    1.3348    1.7840  0.00122  0.00104  0.00342
   0.77801  0.22765  0.07499  1.58580  0.000621  0.000465  0.004846    1.3352    1.7838  0.00117  0.00098  0.00331
   0.79324  0.21248  0.07364  1.60312  0.000579  0.000434  0.005007    1.3358    1.7836  0.00111  0.00093  0.00319
   0.80835  0.19745  0.07210  1.62118  0.000539  0.000403  0.005178    1.3366    1.7832  0.00106  0.00087  0.00306
   0.82334  0.18256  0.07034  1.64013  0.000500  0.000373  0.005362    1.3377    1.7827  0.00100  0.00082  0.00294
   0.83818  0.16785  0.06837  1.66013  0.000461  0.000344  0.005561    1.3390    1.7821  0.00095  0.00076  0.00281
   0.85283  0.15336  0.06618  1.68139  0.000423  0.000315  0.005778    1.3406    1.7814  0.00089  0.00071  0.00267
   0.86726  0.13914  0.06378  1.70416  0.000385  0.000287  0.006018    1.3426    1.7805  0.00083  0.00066  0.00253
   0.88139  0.12525  0.06115  1.72871  0.000348  0.000259  0.006284    1.3449    1.7795  0.00077  0.00060  0.00238
   0.89514  0.11179  0.05832  1.75532  0.000313  0.000232  0.006583    1.3475    1.7783  0.00071  0.00055  0.00223
   0.90840  0.09889  0.05531  1.78428  0.000278  0.000206  0.006921    1.3506    1.7770  0.00065  0.00050  0.00208
   0.92101  0.08668  0.05215  1.81580  0.000244  0.000181  0.007305    1.3539    1.7756  0.00060  0.00044  0.00192
   0.93281  0.07533  0.04890  1.84995  0.000213  0.000157  0.007742    1.3577    1.7740  0.00054  0.00039  0.00176
   0.94366  0.06499  0.04563  1.88664  0.000184  0.000135  0.008238    1.3617    1.7723  0.00048  0.00035  0.00160
   0.95345  0.05575  0.04241  1.92559  0.000157  0.000115  0.008797    1.3659    1.7706  0.00043  0.00030  0.00145
   0.96216  0.04761  0.03929  1.96644  0.000133  0.000097  0.009425    1.3705    1.7689  0.00037  0.00026  0.00130
   0.96984  0.04054  0.03631  2.00886  0.000111  0.000081  0.010126    1.3754    1.7671  0.00033  0.00022  0.00116
   0.97658  0.03441  0.03349  2.05254  0.000092  0.000067  0.010906    1.3808    1.7651  0.00028  0.00019  0.00102
   0.98251  0.02911  0.03083  2.09730  0.000076  0.000055  0.011782    1.3869    1.7631  0.00024  0.00016  0.00089
   0.98774  0.02453  0.02830  2.14296  0.000061  0.000044  0.012802    1.3927    1.7614  0.00020  0.00013  0.00076
   0.99240  0.02055  0.02589  2.18920  0.000048  0.000034  0.014121    1.3941    1.7621  0.00017  0.00011  0.00064
   0.99656  0.01707  0.02360  2.23517  0.000036  0.000026  0.016062    1.3845    1.7683  0.00013  0.00008  0.00051
   1.00032  0.01404  0.02138  2.28015  0.000026  0.000018  0.017384    1.4153    1.7582  0.00010  0.00006  0.00038
   1.00373  0.01138  0.01924  2.32609  0.000022  0.000013  0.011393    1.7484    1.6519  0.00007  0.00005  0.00026
   1.00685  0.00906  0.01715  2.38618  0.000032  0.000010  0.000771    3.1313    1.5413  0.00006  0.00008  0.00021
   1.00973  0.00704  0.01510  2.42527  0.000027  0.000009  0.001231    2.9594    1.5489  0.00005  0.00007  0.00020
   1.01240  0.00530  0.01308  2.46232  0.000023  0.000008  0.001869    2.7967    1.5587  0.00005  0.00006  0.00019
   1.01488  0.00381  0.01109  2.49168  0.000019  0.000007  0.002629    2.6649    1.5689  0.00004  0.00005  0.00018
   1.01722  0.00258  0.00911  2.50793  0.000017  0.000006  0.003492    2.5582    1.5788  0.00004  0.00004  0.00016
   1.01942  0.00159  0.00714  2.50504  0.000014  0.000006  0.004421    2.4704    1.5882  0.00004  0.00004  0.00014
   1.02150  0.00084  0.00520  2.47665  0.000013  0.000005  0.005340    2.3988    1.5968  0.00003  0.00003  0.00013
   1.02349  0.00034  0.00328  2.41762  0.000011  0.000005  0.006149    2.3402    1.6046  0.00003  0.00003  0.00011
   1.02539  0.00006  0.00140  2.32609  0.000010  0.000005  0.006671    2.2996    1.6103  0.00002  0.00002  0.00009
   1.02720  0.00001 -0.00042  2.20847  0.000010  0.000004  0.006823    2.2788    1.6134  0.00002  0.00002  0.00008
   1.02905  0.00016 -0.00225  2.06439  0.000009  0.000004  0.006871    2.2510    1.6177  0.00002  0.00002  0.00006
   1.03096  0.00056 -0.00413  1.88621  0.000009  0.000004  0.006597    2.2265    1.6215  0.00001  0.00002  0.00004
   1.03296  0.00122 -0.00601  1.68149  0.000009  0.000004  0.005972    2.2091    1.6244  0.00001  0.00002  0.00003
   1.03504  0.00215 -0.00788  1.46251  0.000009  0.000004  0.005117    2.1967    1.6265  0.00001  0.00001  0.00002
   1.03723  0.00334 -0.00971  1.24296  0.000010  0.000005  0.004152    2.1924    1.6272  0.00001  0.00001  0.00001
   1.03954  0.00480 -0.01150  1.03333  0.000011  0.000005  0.003252    2.1876    1.6280  0.00001  0.00001  0.00001
   1.04200  0.00653 -0.01325  0.83984  0.000011  0.000005  0.002426    2.1941    1.6269  0.00000  0.00001  0.00001
   1.04462  0.00853 -0.01495  0.66470  0.000012  0.000006  0.001781    2.1895    1.6277  0.00000  0.00001  0.00000
   1.04744  0.01081 -0.01661  0.50790  0.000014  0.000006  0.001219    2.2069    1.6248  0.00000  0.00001  0.00000
   1.05050  0.01339 -0.01825  0.36783  0.000015  0.000007  0.000824    2.1955    1.6267  0.00000  0.00001  0.00000
   1.05383  0.01631 -0.01986  0.24272  0.000016  0.000007  0.000476    2.2255    1.6217  0.00000  0.00000  0.00000
   1.05750  0.01960 -0.02147  0.13038  0.000017  0.000008  0.000243    2.2140    1.6236  0.00000  0.00000  0.00000
   1.06156  0.02333 -0.02307  0.02912  0.000020  0.000009  0.000046    2.2295    1.6211  0.00000  0.00000  0.00000
   1.06609  0.02757 -0.02468 -0.06277  0.000020  0.000009  0.000098    2.2295    1.6211  0.00000 -0.00000 -0.00000
   1.07120  0.03242 -0.02630 -0.14666  0.000024  0.000010  0.000192    2.2625    1.6159  0.00000 -0.00000 -0.00000
   1.07700  0.03798 -0.02793 -0.22348  0.000025  0.000011  0.000282    2.2325    1.6206  0.00000 -0.00001 -0.00000
   1.08362  0.04440 -0.02958 -0.29415  0.000028  0.000012  0.000317    2.2784    1.6135  0.00000 -0.00001 -0.00000
   1.09122  0.05181 -0.03124 -0.35901  0.000031  0.000014  0.000364    2.2595    1.6163  0.00000 -0.00001 -0.00000
   1.09993  0.06036 -0.03289 -0.41839  0.000034  0.000015  0.000371    2.2902    1.6117  0.00000 -0.00001 -0.00000
   1.10983  0.07013 -0.03449 -0.47212  0.000037  0.000016  0.000385    2.2865    1.6122  0.00000 -0.00002 -0.00000
   1.12094  0.08113 -0.03602 -0.52017  0.000041  0.000018  0.000378    2.3050    1.6095  0.00000 -0.00002 -0.00000
   1.13317  0.09329 -0.03741 -0.56244  0.000045  0.000019  0.000373    2.3105    1.6087  0.00001 -0.00003 -0.00001
   1.14637  0.10643 -0.03865 -0.59914  0.000049  0.000021  0.000360    2.3224    1.6071  0.00001 -0.00003 -0.00001
   1.16035  0.12037 -0.03971 -0.63069  0.000053  0.000023  0.000347    2.3308    1.6059  0.00001 -0.00003 -0.00001
   1.17492  0.13492 -0.04058 -0.65771  0.000057  0.000024  0.000333    2.3399    1.6046  0.00001 -0.00004 -0.00001
   1.18995  0.14993 -0.04126 -0.68084  0.000061  0.000026  0.000318    2.3482    1.6035  0.00001 -0.00004 -0.00001
   1.20532  0.16529 -0.04178 -0.70071  0.000065  0.000028  0.000305    2.3561    1.6024  0.00001 -0.00005 -0.00002
   1.22096  0.18092 -0.04213 -0.71786  0.000069  0.000029  0.000292    2.3636    1.6014  0.00002 -0.00005 -0.00002
   1.23681  0.19677 -0.04235 -0.73275  0.000073  0.000031  0.000280    2.3706    1.6005  0.00002 -0.00005 -0.00002
   1.25283  0.21279 -0.04244 -0.74576  0.000077  0.000033  0.000269    2.3771    1.5996  0.00002 -0.00006 -0.00002
   1.26900  0.22896 -0.04241 -0.75722  0.000081  0.000034  0.000258    2.3832    1.5988  0.00002 -0.00006 -0.00002
   1.28529  0.24525 -0.04228 -0.76737  0.000085  0.000036  0.000248    2.3888    1.5981  0.00002 -0.00007 -0.00003
   1.30169  0.26165 -0.04206 -0.77643  0.000089  0.000037  0.000240    2.3939    1.5974  0.00002 -0.00007 -0.00003
   1.31818  0.27814 -0.04176 -0.78458  0.000092  0.000039  0.000231    2.3984    1.5969  0.00002 -0.00007 -0.00003
   1.33476  0.29471 -0.04140 -0.79198  0.000096  0.000040  0.000224    2.4023    1.5964  0.00003 -0.00008 -0.00003
   1.35141  0.31136 -0.04097 -0.79875  0.000099  0.000041  0.000217    2.4055    1.5960  0.00003 -0.00008 -0.00003
   1.36813  0.32807 -0.04049 -0.80502  0.000103  0.000043  0.000212    2.4078    1.5957  0.00003 -0.00008 -0.00004
   1.38490  0.34483 -0.03997 -0.81090  0.000106  0.000044  0.000207    2.4090    1.5955  0.00003 -0.00009 -0.00004
   1.40172  0.36165 -0.03941 -0.81651  0.000109  0.000045  0.000202    2.4087    1.5956  0.00003 -0.00009 -0.00004
   1.41857  0.37849 -0.03882 -0.82197  0.000112  0.000046  0.000199    2.4066    1.5958  0.00003 -0.00009 -0.00004
   1.43543  0.39533 -0.03820 -0.82774  0.000114  0.000047  0.000199    2.3971    1.5970  0.00003 -0.00009 -0.00004
   1.45223  0.41212 -0.03756 -0.83391  0.000115  0.000048  0.000200    2.3836    1.5988  0.00003 -0.00010 -0.00004
   1.46900  0.42888 -0.03688 -0.83873  0.000118  0.000049  0.000194    2.3944    1.5974  0.00003 -0.00010 -0.00005
   1.48578  0.44564 -0.03614 -0.84299  0.000122  0.000051  0.000188    2.4046    1.5961  0.00004 -0.00010 -0.00005
   1.50257  0.46241 -0.03537 -0.84682  0.000125  0.000052  0.000182    2.4134    1.5950  0.00004 -0.00011 -0.00005
   1.51939  0.47921 -0.03455 -0.85032  0.000128  0.000053  0.000177    2.4205    1.5941  0.00004 -0.00011 -0.00005
   1.53623  0.49603 -0.03370 -0.85355  0.000131  0.000054  0.000173    2.4263    1.5934  0.00004 -0.00011 -0.00005
   1.55310  0.51287 -0.03282 -0.85654  0.000134  0.000055  0.000169    2.4311    1.5928  0.00004 -0.00011 -0.00006
   1.56999  0.52974 -0.03190 -0.85934  0.000137  0.000056  0.000165    2.4351    1.5923  0.00004 -0.00012 -0.00006
   1.58690  0.54662 -0.03096 -0.86197  0.000140  0.000057  0.000161    2.4385    1.5919  0.00004 -0.00012 -0.00006
   1.60383  0.56353 -0.03000 -0.86446  0.000143  0.000058  0.000158    2.4413    1.5916  0.00004 -0.00012 -0.00006
   1.62078  0.58045 -0.02902 -0.86681  0.000145  0.000059  0.000155    2.4436    1.5913  0.00004 -0.00013 -0.00006
   1.63774  0.59738 -0.02801 -0.86906  0.000148  0.000060  0.000153    2.4456    1.5911  0.00005 -0.00013 -0.00006
   1.65472  0.61433 -0.02699 -0.87121  0.000151  0.000062  0.000150    2.4471    1.5909  0.00005 -0.00013 -0.00006
   1.67172  0.63130 -0.02595 -0.87328  0.000153  0.000063  0.000148    2.4484    1.5907  0.00005 -0.00013 -0.00007
   1.68872  0.64827 -0.02490 -0.87527  0.000156  0.000064  0.000146    2.4494    1.5906  0.00005 -0.00014 -0.00007
   1.70574  0.66525 -0.02384 -0.87719  0.000158  0.000064  0.000144    2.4501    1.5905  0.00005 -0.00014 -0.00007
   1.72277  0.68225 -0.02277 -0.87906  0.000160  0.000065  0.000142    2.4506    1.5905  0.00005 -0.00014 -0.00007
   1.73980  0.69925 -0.02169 -0.88087  0.000163  0.000066  0.000140    2.4510    1.5904  0.00005 -0.00014 -0.00007
   1.75684  0.71625 -0.02060 -0.88263  0.000165  0.000067  0.000138    2.4513    1.5904  0.00005 -0.00015 -0.00007
   1.77389  0.73326 -0.01950 -0.88434  0.000167  0.000068  0.000137    2.4515    1.5904  0.00005 -0.00015 -0.00008
   1.79094  0.75027 -0.01839 -0.88601  0.000170  0.000069  0.000135    2.4518    1.5903  0.00005 -0.00015 -0.00008
   1.80799  0.76729 -0.01728 -0.88762  0.000172  0.000070  0.000133    2.4521    1.5903  0.00006 -0.00015 -0.00008
   1.82504  0.78430 -0.01616 -0.88917  0.000174  0.000071  0.000132    2.4526    1.5902  0.00006 -0.00015 -0.00008
   1.84209  0.80132 -0.01503 -0.89068  0.000176  0.000072  0.000130    2.4533    1.5902  0.00006 -0.00016 -0.00008
   1.85914  0.81833 -0.01390 -0.89213  0.000178  0.000073  0.000129    2.4540    1.5901  0.00006 -0.00016 -0.00008
   1.87618  0.83534 -0.01276 -0.89362  0.000180  0.000073  0.000128    2.4531    1.5902  0.00006 -0.00016 -0.00008
   1.89322  0.85233 -0.01162 -0.89555  0.000181  0.000074  0.000393    2.4365    1.5277  0.00006 -0.00016 -0.00008
   1.91023  0.86931 -0.01047 -0.89321  0.000136  0.000085  0.001618    1.6102    1.6800  0.00007 -0.00012 -0.00010
   1.92721  0.88624 -0.00931 -0.89472  0.000145  0.000104  0.002245    1.3908    1.7623  0.00008 -0.00013 -0.00013
   1.94411  0.90311 -0.00815 -0.89620  0.000172  0.000128  0.002309    1.3469    1.7817  0.00010 -0.00015 -0.00016
   1.96087  0.91982 -0.00699 -0.89710  0.000203  0.000151  0.002219    1.3472    1.7809  0.00012 -0.00018 -0.00019
   1.97732  0.93623 -0.00584 -0.89727  0.000233  0.000173  0.002140    1.3489    1.7796  0.00014 -0.00021 -0.00022
   1.99319  0.95207 -0.00472 -0.89666  0.000262  0.000194  0.002080    1.3487    1.7794  0.00016 -0.00023 -0.00025
   2.00805  0.96689 -0.00367 -0.89492  0.000289  0.000214  0.002027    1.3480    1.7795  0.00017 -0.00026 -0.00027
   2.02139  0.98019 -0.00271 -0.89214  0.000315  0.000234  0.001977    1.3477    1.7794  0.00019 -0.00028 -0.00030
   2.03285  0.99163 -0.00187 -0.88358  0.000346  0.000255  0.001882    1.3542    1.7761  0.00020 -0.00031 -0.00031
   2.04125  1.00000 -0.00126 -0.89027  0.000347  0.000259  0.001947    1.3406    1.7826  0.00021 -0.00031 -0.00033
   2.04125  1.00010 -0.00001  0.89027  0.013587  0.005871  0.000000    2.3144
   2.04963  1.00847 -0.00051  0.87578  0.012599  0.006286  0.000000    2.0045
   2.05919  1.01801 -0.00091  0.88336  0.011500  0.006075  0.000000    1.8930
   2.07007  1.02889 -0.00126  0.89146  0.010537  0.005866  0.000000    1.7964
   2.08247  1.04129 -0.00155  0.89976  0.009699  0.005665  0.000000    1.7120
   2.09659  1.05541 -0.00177  0.90799  0.008972  0.005479  0.000000    1.6376
   2.11268  1.07150 -0.00191  0.91591  0.008343  0.005310  0.000000    1.5713
   2.13102  1.08983 -0.00193  0.92340  0.007798  0.005159  0.000000    1.5117
   2.15190  1.11072 -0.00181  0.93039  0.007324  0.005025  0.000000    1.4574
   2.17570  1.13451 -0.00151  0.93686  0.006907  0.004907  0.000000    1.4077
   2.20281  1.16162 -0.00097  0.94283  0.006540  0.004802  0.000000    1.3619
   2.23369  1.19249 -0.00015  0.94835  0.006215  0.004710  0.000000    1.3197
   2.26888  1.22765  0.00103  0.95345  0.005927  0.004627  0.000000    1.2809
   2.30896  1.26771  0.00265  0.95817  0.005671  0.004553  0.000000    1.2454
   2.35463  1.31332  0.00482  0.96252  0.005443  0.004487  0.000000    1.2131
   2.40666  1.36527  0.00764  0.96654  0.005242  0.004428  0.000000    1.1840
   2.46593  1.42444  0.01127  0.97025  0.005065  0.004374  0.000000    1.1580
   2.53346  1.49181  0.01585  0.97366  0.004911  0.004326  0.000000    1.1351
