#    s        x        y     Ue/Vinf    Dstar     Theta      Cf       H       H*        P         m          K          tau         Di
   0.00000  1.00000  0.00126  0.88405  0.003390  0.002090  0.001232    1.6216    1.6714  0.00163  0.00300  0.00241
   0.00837  0.99180  0.00295  0.90250  0.003047  0.001934  0.001413    1.5754    1.6870  0.00158  0.00275  0.00240
   0.01972  0.98067  0.00521  0.92552  0.002687  0.001759  0.001644    1.5278    1.7042  0.00151  0.00249  0.00238
   0.03284  0.96782  0.00778  0.94664  0.002408  0.001612  0.001856    1.4935    1.7173  0.00144  0.00228  0.00235
   0.04736  0.95357  0.01057  0.96561  0.002188  0.001489  0.002046    1.4689    1.7273  0.00139  0.00211  0.00232
   0.06282  0.93838  0.01349  0.98231  0.002013  0.001387  0.002213    1.4513    1.7346  0.00134  0.00198  0.00228
   0.07882  0.92265  0.01644  0.99700  0.001869  0.001300  0.002360    1.4386    1.7401  0.00129  0.00186  0.00224
   0.09511  0.90663  0.01939  1.01000  0.001749  0.001224  0.002492    1.4292    1.7443  0.00125  0.00177  0.00220
   0.11155  0.89046  0.02230  1.02165  0.001645  0.001157  0.002610    1.4222    1.7475  0.00121  0.00168  0.00216
   0.12806  0.87420  0.02515  1.03221  0.001553  0.001096  0.002719    1.4169    1.7499  0.00117  0.00160  0.00211
   0.14460  0.85789  0.02795  1.04190  0.001471  0.001041  0.002820    1.4128    1.7519  0.00113  0.00153  0.00206
   0.16116  0.84156  0.03068  1.05087  0.001395  0.000990  0.002915    1.4097    1.7534  0.00109  0.00147  0.00201
   0.17773  0.82520  0.03335  1.05924  0.001325  0.000941  0.003005    1.4074    1.7547  0.00106  0.00140  0.00196
   0.19431  0.80884  0.03596  1.06712  0.001259  0.000896  0.003093    1.4056    1.7557  0.00102  0.00134  0.00191
   0.21089  0.79245  0.03851  1.07459  0.001197  0.000852  0.003178    1.4044    1.7565  0.00098  0.00129  0.00186
   0.22746  0.77606  0.04099  1.08170  0.001138  0.000811  0.003262    1.4035    1.7571  0.00095  0.00123  0.00180
   0.24404  0.75966  0.04340  1.08850  0.001081  0.000771  0.003345    1.4029    1.7576  0.00091  0.00118  0.00175
   0.26062  0.74326  0.04576  1.09505  0.001026  0.000732  0.003428    1.4026    1.7580  0.00088  0.00112  0.00169
   0.27719  0.72684  0.04804  1.10137  0.000973  0.000694  0.003511    1.4025    1.7584  0.00084  0.00107  0.00163
   0.29375  0.71043  0.05026  1.10749  0.000922  0.000657  0.003597    1.4025    1.7587  0.00081  0.00102  0.00157
   0.31031  0.69401  0.05242  1.11344  0.000871  0.000621  0.003685    1.4025    1.7590  0.00077  0.00097  0.00151
   0.32687  0.67758  0.05450  1.11923  0.000821  0.000586  0.003777    1.4026    1.7594  0.00073  0.00092  0.00144
   0.34341  0.66116  0.05652  1.12488  0.000772  0.000551  0.003874    1.4025    1.7599  0.00070  0.00087  0.00138
   0.35995  0.64474  0.05847  1.13040  0.000724  0.000516  0.003979    1.4021    1.7605  0.00066  0.00082  0.00131
   0.37648  0.62832  0.06035  1.13580  0.000676  0.000482  0.004093    1.4014    1.7614  0.00062  0.00077  0.00124
   0.39299  0.61191  0.06215  1.14107  0.000628  0.000448  0.004218    1.4001    1.7626  0.00058  0.00072  0.00117
   0.40949  0.59550  0.06388  1.14619  0.000580  0.000415  0.004358    1.3982    1.7641  0.00055  0.00066  0.00110
   0.42598  0.57909  0.06553  1.15115  0.000532  0.000381  0.004511    1.3962    1.7658  0.00051  0.00061  0.00103
   0.44245  0.56270  0.06711  1.15586  0.000485  0.000348  0.004670    1.3953    1.7672  0.00046  0.00056  0.00095
   0.45890  0.54631  0.06860  1.16023  0.000440  0.000315  0.004799    1.4001    1.7663  0.00042  0.00051  0.00087
   0.47533  0.52994  0.07002  1.16411  0.000402  0.000282  0.004776    1.4251    1.7571  0.00038  0.00047  0.00078
   0.49174  0.51358  0.07135  1.16759  0.000383  0.000252  0.004245    1.5175    1.7232  0.00034  0.00045  0.00069
   0.50813  0.49724  0.07259  1.17236  0.000412  0.000228  0.002700    1.8078    1.6389  0.00031  0.00048  0.00060
   0.52450  0.48092  0.07374  1.18955  0.000556  0.000206  0.000600    2.6978    1.5203  0.00029  0.00066  0.00053
   0.54083  0.46462  0.07480  1.19507  0.000596  0.000199  0.000261    2.9910    1.5473  0.00028  0.00071  0.00053
   0.55713  0.44834  0.07576  1.19877  0.000590  0.000195  0.000251    3.0255    1.5457  0.00028  0.00071  0.00052
   0.57339  0.43211  0.07663  1.20357  0.000572  0.000190  0.000264    3.0153    1.5461  0.00027  0.00069  0.00051
   0.58960  0.41592  0.07738  1.20896  0.000548  0.000184  0.000292    2.9803    1.5478  0.00027  0.00066  0.00050
   0.60571  0.39982  0.07804  1.21515  0.000516  0.000178  0.000348    2.9069    1.5518  0.00026  0.00063  0.00049
   0.62170  0.38384  0.07856  1.22134  0.000484  0.000171  0.000416    2.8292    1.5565  0.00026  0.00059  0.00049
   0.63761  0.36794  0.07893  1.22652  0.000460  0.000165  0.000469    2.7812    1.5598  0.00025  0.00056  0.00048
   0.65345  0.35210  0.07916  1.23121  0.000438  0.000160  0.000520    2.7420    1.5627  0.00024  0.00054  0.00047
   0.66923  0.33632  0.07922  1.23542  0.000419  0.000154  0.000569    2.7097    1.5652  0.00024  0.00052  0.00046
   0.68496  0.32059  0.07913  1.23920  0.000400  0.000149  0.000617    2.6821    1.5674  0.00023  0.00050  0.00045
   0.70063  0.30492  0.07888  1.24255  0.000383  0.000144  0.000666    2.6579    1.5695  0.00022  0.00048  0.00043
   0.71624  0.28931  0.07846  1.24548  0.000367  0.000139  0.000715    2.6363    1.5714  0.00022  0.00046  0.00042
   0.73180  0.27377  0.07787  1.24796  0.000351  0.000134  0.000766    2.6170    1.5731  0.00021  0.00044  0.00041
   0.74728  0.25831  0.07709  1.24999  0.000336  0.000129  0.000818    2.5995    1.5747  0.00020  0.00042  0.00040
   0.76269  0.24293  0.07614  1.25153  0.000321  0.000124  0.000872    2.5835    1.5763  0.00019  0.00040  0.00038
   0.77801  0.22765  0.07499  1.25254  0.000307  0.000120  0.000929    2.5688    1.5777  0.00019  0.00038  0.00037
   0.79324  0.21248  0.07364  1.25298  0.000293  0.000115  0.000988    2.5553    1.5791  0.00018  0.00037  0.00036
   0.80835  0.19745  0.07210  1.25281  0.000279  0.000110  0.001051    2.5428    1.5803  0.00017  0.00035  0.00034
   0.82334  0.18256  0.07034  1.25195  0.000266  0.000105  0.001118    2.5312    1.5815  0.00016  0.00033  0.00033
   0.83818  0.16785  0.06837  1.25033  0.000252  0.000100  0.001190    2.5204    1.5827  0.00016  0.00032  0.00031
   0.85283  0.15336  0.06618  1.24787  0.000239  0.000095  0.001267    2.5103    1.5837  0.00015  0.00030  0.00029
   0.86726  0.13914  0.06378  1.24445  0.000226  0.000090  0.001351    2.5008    1.5848  0.00014  0.00028  0.00028
   0.88139  0.12525  0.06115  1.23996  0.000213  0.000085  0.001444    2.4917    1.5858  0.00013  0.00026  0.00026
   0.89514  0.11179  0.05832  1.23425  0.000199  0.000080  0.001546    2.4831    1.5867  0.00012  0.00025  0.00024
   0.90840  0.09889  0.05531  1.22718  0.000186  0.000075  0.001660    2.4746    1.5877  0.00011  0.00023  0.00022
   0.92101  0.08668  0.05215  1.21861  0.000173  0.000070  0.001787    2.4662    1.5887  0.00010  0.00021  0.00020
   0.93281  0.07533  0.04890  1.20841  0.000161  0.000065  0.001928    2.4578    1.5896  0.00010  0.00019  0.00018
   0.94366  0.06499  0.04563  1.19651  0.000149  0.000061  0.002083    2.4492    1.5906  0.00009  0.00018  0.00017
   0.95345  0.05575  0.04241  1.18287  0.000137  0.000056  0.002254    2.4403    1.5917  0.00008  0.00016  0.00015
   0.96216  0.04761  0.03929  1.16746  0.000126  0.000052  0.002439    2.4310    1.5928  0.00007  0.00015  0.00013
   0.96984  0.04054  0.03631  1.15020  0.000116  0.000048  0.002638    2.4212    1.5940  0.00006  0.00013  0.00012
   0.97658  0.03441  0.03349  1.13095  0.000107  0.000044  0.002850    2.4110    1.5953  0.00006  0.00012  0.00010
   0.98251  0.02911  0.03083  1.10947  0.000098  0.000041  0.003074    2.4002    1.5966  0.00005  0.00011  0.00009
   0.98774  0.02453  0.02830  1.08539  0.000090  0.000038  0.003310    2.3889    1.5981  0.00004  0.00010  0.00008
   0.99240  0.02055  0.02589  1.05822  0.000083  0.000035  0.003556    2.3771    1.5996  0.00004  0.00009  0.00007
   0.99656  0.01707  0.02360  1.02733  0.000076  0.000032  0.003809    2.3647    1.6012  0.00003  0.00008  0.00006
   1.00032  0.01404  0.02138  0.99188  0.000070  0.000030  0.004064    2.3517    1.6030  0.00003  0.00007  0.00005
   1.00373  0.01138  0.01924  0.95085  0.000064  0.000027  0.004313    2.3382    1.6048  0.00002  0.00006  0.00004
   1.00685  0.00906  0.01715  0.90295  0.000058  0.000025  0.004542    2.3241    1.6068  0.00002  0.00005  0.00003
   1.00973  0.00704  0.01510  0.84665  0.000053  0.000023  0.004725    2.3100    1.6088  0.00002  0.00005  0.00002
   1.01240  0.00530  0.01308  0.78010  0.000049  0.000021  0.004838    2.2947    1.6110  0.00001  0.00004  0.00002
   1.01488  0.00381  0.01109  0.70137  0.000044  0.000019  0.004810    2.2818    1.6130  0.00001  0.00003  0.00001
   1.01722  0.00258  0.00911  0.60848  0.000041  0.000018  0.004622    2.2654    1.6154  0.00001  0.00002  0.00001
   1.01942  0.00159  0.00714  0.50020  0.000038  0.000017  0.004135    2.2565    1.6168  0.00000  0.00002  0.00000
   1.02150  0.00084  0.00520  0.37633  0.000035  0.000016  0.003388    2.2404    1.6193  0.00000  0.00001  0.00000
   1.02349  0.00034  0.00328  0.23903  0.000034  0.000015  0.002264    2.2378    1.6197  0.00000  0.00001  0.00000
   1.02539  0.00006  0.00140  0.09252  0.000032  0.000014  0.000923    2.2295    1.6211  0.00000  0.00000  0.00000
   1.02720  0.00001 -0.00042 -0.05652  0.000032  0.000014  0.000564    2.2295    1.6211  0.00000 -0.00000 -0.00000
   1.02905  0.00016 -0.00225 -0.21081  0.000032  0.000014  0.002142    2.2274    1.6214  0.00000 -0.00001 -0.00000
   1.03096  0.00056 -0.00413 -0.36717  0.000032  0.000014  0.003599    2.2385    1.6196  0.00000 -0.00001 -0.00000
   1.03296  0.00122 -0.00601 -0.51534  0.000034  0.000015  0.004825    2.2426    1.6190  0.00000 -0.00002 -0.00000
   1.03504  0.00215 -0.00788 -0.64796  0.000036  0.000016  0.005554    2.2617    1.6160  0.00001 -0.00002 -0.00001
   1.03723  0.00334 -0.00971 -0.76049  0.000039  0.000017  0.005910    2.2763    1.6138  0.00001 -0.00003 -0.00001
   1.03954  0.00480 -0.01150 -0.85248  0.000044  0.000019  0.005877    2.2984    1.6105  0.00001 -0.00004 -0.00002
   1.04200  0.00653 -0.01325 -0.92571  0.000048  0.000021  0.005642    2.3188    1.6076  0.00002 -0.00004 -0.00003
   1.04462  0.00853 -0.01495 -0.98319  0.000054  0.000023  0.005267    2.3413    1.6044  0.00002 -0.00005 -0.00004
   1.04744  0.01081 -0.01661 -1.02793  0.000060  0.000025  0.004840    2.3633    1.6014  0.00003 -0.00006 -0.00004
   1.05050  0.01339 -0.01825 -1.06263  0.000067  0.000028  0.004402    2.3853    1.5985  0.00003 -0.00007 -0.00005
   1.05383  0.01631 -0.01986 -1.08944  0.000074  0.000031  0.003976    2.4070    1.5958  0.00004 -0.00008 -0.00006
   1.05750  0.01960 -0.02147 -1.11006  0.000082  0.000034  0.003577    2.4282    1.5932  0.00004 -0.00009 -0.00007
   1.06156  0.02333 -0.02307 -1.12578  0.000091  0.000037  0.003208    2.4492    1.5907  0.00005 -0.00010 -0.00008
   1.06609  0.02757 -0.02468 -1.13755  0.000100  0.000041  0.002870    2.4697    1.5883  0.00005 -0.00011 -0.00010
   1.07120  0.03242 -0.02630 -1.14609  0.000111  0.000045  0.002562    2.4900    1.5860  0.00006 -0.00013 -0.00011
   1.07700  0.03798 -0.02793 -1.15192  0.000123  0.000049  0.002282    2.5103    1.5837  0.00006 -0.00014 -0.00012
   1.08362  0.04440 -0.02958 -1.15542  0.000135  0.000053  0.002029    2.5304    1.5816  0.00007 -0.00016 -0.00013
   1.09122  0.05181 -0.03124 -1.15689  0.000149  0.000059  0.001799    2.5507    1.5795  0.00008 -0.00017 -0.00014
   1.09993  0.06036 -0.03289 -1.15656  0.000165  0.000064  0.001592    2.5710    1.5775  0.00009 -0.00019 -0.00016
   1.10983  0.07013 -0.03449 -1.15465  0.000182  0.000070  0.001408    2.5914    1.5755  0.00009 -0.00021 -0.00017
   1.12094  0.08113 -0.03602 -1.15141  0.000200  0.000077  0.001246    2.6119    1.5736  0.00010 -0.00023 -0.00018
   1.13317  0.09329 -0.03741 -1.14711  0.000220  0.000084  0.001104    2.6324    1.5717  0.00011 -0.00025 -0.00020
   1.14637  0.10643 -0.03865 -1.14203  0.000240  0.000091  0.000982    2.6528    1.5699  0.00012 -0.00027 -0.00021
   1.16035  0.12037 -0.03971 -1.13644  0.000261  0.000098  0.000877    2.6731    1.5682  0.00013 -0.00030 -0.00022
   1.17492  0.13492 -0.04058 -1.13054  0.000282  0.000105  0.000787    2.6932    1.5665  0.00013 -0.00032 -0.00024
   1.18995  0.14993 -0.04126 -1.12450  0.000304  0.000112  0.000710    2.7131    1.5649  0.00014 -0.00034 -0.00025
   1.20532  0.16529 -0.04178 -1.11842  0.000326  0.000119  0.000644    2.7327    1.5634  0.00015 -0.00036 -0.00026
   1.22096  0.18092 -0.04213 -1.11239  0.000347  0.000126  0.000586    2.7520    1.5619  0.00016 -0.00039 -0.00027
   1.23681  0.19677 -0.04235 -1.10646  0.000369  0.000133  0.000535    2.7708    1.5605  0.00016 -0.00041 -0.00028
   1.25283  0.21279 -0.04244 -1.10067  0.000390  0.000140  0.000492    2.7890    1.5593  0.00017 -0.00043 -0.00029
   1.26900  0.22896 -0.04241 -1.09506  0.000411  0.000147  0.000454    2.8059    1.5581  0.00018 -0.00045 -0.00030
   1.28529  0.24525 -0.04228 -1.08966  0.000432  0.000153  0.000421    2.8211    1.5571  0.00018 -0.00047 -0.00031
   1.30169  0.26165 -0.04206 -1.08455  0.000452  0.000159  0.000394    2.8329    1.5563  0.00019 -0.00049 -0.00032
   1.31818  0.27814 -0.04176 -1.07982  0.000470  0.000166  0.000374    2.8385    1.5559  0.00019 -0.00051 -0.00032
   1.33476  0.29471 -0.04140 -1.07582  0.000484  0.000171  0.000368    2.8274    1.5567  0.00020 -0.00052 -0.00033
   1.35141  0.31136 -0.04097 -1.07374  0.000486  0.000176  0.000473    2.7684    1.5209  0.00020 -0.00052 -0.00033
   1.36813  0.32807 -0.04049 -1.05920  0.000362  0.000195  0.002211    1.8557    1.6339  0.00022 -0.00038 -0.00038
   1.38490  0.34483 -0.03997 -1.05499  0.000337  0.000220  0.003638    1.5326    1.7224  0.00024 -0.00036 -0.00044
   1.40172  0.36165 -0.03941 -1.05272  0.000360  0.000251  0.004112    1.4333    1.7572  0.00028 -0.00038 -0.00051
   1.41857  0.37849 -0.03882 -1.05066  0.000400  0.000284  0.004105    1.4103    1.7647  0.00031 -0.00042 -0.00058
   1.43543  0.39533 -0.03820 -1.04911  0.000445  0.000316  0.003994    1.4060    1.7650  0.00035 -0.00047 -0.00064
   1.45223  0.41212 -0.03756 -1.04822  0.000488  0.000347  0.003886    1.4053    1.7641  0.00038 -0.00051 -0.00071
   1.46900  0.42888 -0.03688 -1.04592  0.000534  0.000379  0.003764    1.4069    1.7624  0.00042 -0.00056 -0.00077
   1.48578  0.44564 -0.03614 -1.04324  0.000579  0.000411  0.003656    1.4078    1.7611  0.00045 -0.00060 -0.00082
   1.50257  0.46241 -0.03537 -1.04032  0.000624  0.000443  0.003562    1.4079    1.7603  0.00048 -0.00065 -0.00088
   1.51939  0.47921 -0.03455 -1.03727  0.000669  0.000475  0.003479    1.4073    1.7598  0.00051 -0.00069 -0.00093
   1.53623  0.49603 -0.03370 -1.03415  0.000714  0.000507  0.003405    1.4062    1.7597  0.00054 -0.00074 -0.00099
   1.55310  0.51287 -0.03282 -1.03098  0.000758  0.000540  0.003338    1.4049    1.7598  0.00057 -0.00078 -0.00104
   1.56999  0.52974 -0.03190 -1.02780  0.000802  0.000572  0.003276    1.4034    1.7599  0.00060 -0.00082 -0.00109
   1.58690  0.54662 -0.03096 -1.02462  0.000847  0.000604  0.003219    1.4018    1.7602  0.00063 -0.00087 -0.00114
   1.60383  0.56353 -0.03000 -1.02145  0.000891  0.000636  0.003166    1.4002    1.7605  0.00066 -0.00091 -0.00119
   1.62078  0.58045 -0.02902 -1.01829  0.000936  0.000669  0.003115    1.3987    1.7608  0.00069 -0.00095 -0.00124
   1.63774  0.59738 -0.02801 -1.01515  0.000980  0.000701  0.003067    1.3972    1.7612  0.00072 -0.00099 -0.00129
   1.65472  0.61433 -0.02699 -1.01204  0.001025  0.000734  0.003022    1.3958    1.7615  0.00075 -0.00104 -0.00134
   1.67172  0.63130 -0.02595 -1.00894  0.001069  0.000767  0.002978    1.3945    1.7618  0.00078 -0.00108 -0.00139
   1.68872  0.64827 -0.02490 -1.00586  0.001114  0.000800  0.002936    1.3933    1.7621  0.00081 -0.00112 -0.00143
   1.70574  0.66525 -0.02384 -1.00279  0.001159  0.000833  0.002895    1.3921    1.7624  0.00084 -0.00116 -0.00148
   1.72277  0.68225 -0.02277 -0.99972  0.001205  0.000866  0.002856    1.3911    1.7627  0.00087 -0.00120 -0.00153
   1.73980  0.69925 -0.02169 -0.99665  0.001250  0.000900  0.002818    1.3901    1.7629  0.00089 -0.00125 -0.00157
   1.75684  0.71625 -0.02060 -0.99357  0.001296  0.000933  0.002780    1.3893    1.7631  0.00092 -0.00129 -0.00161
   1.77389  0.73326 -0.01950 -0.99046  0.001343  0.000967  0.002743    1.3885    1.7632  0.00095 -0.00133 -0.00166
   1.79094  0.75027 -0.01839 -0.98730  0.001390  0.001002  0.002707    1.3879    1.7633  0.00098 -0.00137 -0.00170
   1.80799  0.76729 -0.01728 -0.98409  0.001438  0.001036  0.002670    1.3875    1.7634  0.00100 -0.00142 -0.00174
   1.82504  0.78430 -0.01616 -0.98078  0.001487  0.001072  0.002633    1.3871    1.7634  0.00103 -0.00146 -0.00178
   1.84209  0.80132 -0.01503 -0.97735  0.001537  0.001108  0.002596    1.3870    1.7633  0.00106 -0.00150 -0.00182
   1.85914  0.81833 -0.01390 -0.97377  0.001589  0.001145  0.002557    1.3871    1.7631  0.00109 -0.00155 -0.00186
   1.87618  0.83534 -0.01276 -0.96999  0.001642  0.001183  0.002518    1.3875    1.7628  0.00111 -0.00159 -0.00190
   1.89322  0.85233 -0.01162 -0.96595  0.001698  0.001223  0.002475    1.3883    1.7624  0.00114 -0.00164 -0.00194
   1.91023  0.86931 -0.01047 -0.96156  0.001757  0.001265  0.002430    1.3894    1.7617  0.00117 -0.00169 -0.00198
   1.92721  0.88624 -0.00931 -0.95673  0.001821  0.001309  0.002381    1.3912    1.7608  0.00120 -0.00174 -0.00202
   1.94411  0.90311 -0.00815 -0.95133  0.001890  0.001356  0.002327    1.3937    1.7595  0.00123 -0.00180 -0.00205
   1.96087  0.91982 -0.00699 -0.94516  0.001968  0.001408  0.002265    1.3973    1.7578  0.00126 -0.00186 -0.00209
   1.97732  0.93623 -0.00584 -0.93799  0.002056  0.001466  0.002193    1.4025    1.7554  0.00129 -0.00193 -0.00212
   1.99319  0.95207 -0.00472 -0.92953  0.002160  0.001532  0.002108    1.4098    1.7520  0.00132 -0.00201 -0.00216
   2.00805  0.96689 -0.00367 -0.91944  0.002284  0.001608  0.002006    1.4203    1.7473  0.00136 -0.00210 -0.00218
   2.02139  0.98019 -0.00271 -0.90765  0.002435  0.001697  0.001887    1.4349    1.7410  0.00140 -0.00221 -0.00221
   2.03285  0.99163 -0.00187 -0.89324  0.002631  0.001806  0.001739    1.4566    1.7318  0.00144 -0.00235 -0.00223
   2.04125  1.00000 -0.00126 -0.88405  0.002767  0.001882  0.001650    1.4704    1.7261  0.00147 -0.00245 -0.00224
   2.04125  1.00010 -0.00001  0.88405  0.008647  0.003972  0.000000    2.1770
   2.04963  1.00847 -0.00054  0.85901  0.007384  0.004445  0.000000    1.6610
   2.05919  1.01800 -0.00107  0.87851  0.006414  0.004099  0.000000    1.5648
   2.07007  1.02887 -0.00164  0.89515  0.005732  0.003836  0.000000    1.4942
   2.08247  1.04126 -0.00225  0.90904  0.005234  0.003637  0.000000    1.4391
   2.09659  1.05537 -0.00290  0.92070  0.004852  0.003482  0.000000    1.3934
   2.11268  1.07144 -0.00361  0.93058  0.004547  0.003359  0.000000    1.3537
   2.13102  1.08976 -0.00437  0.93906  0.004296  0.003259  0.000000    1.3183
   2.15190  1.11063 -0.00520  0.94643  0.004083  0.003176  0.000000    1.2858
   2.17570  1.13441 -0.00609  0.95291  0.003900  0.003105  0.000000    1.2558
   2.20281  1.16150 -0.00704  0.95865  0.003740  0.003046  0.000000    1.2279
   2.23369  1.19237 -0.00807  0.96377  0.003599  0.002994  0.000000    1.2020
   2.26888  1.22753 -0.00917  0.96834  0.003474  0.002949  0.000000    1.1781
   2.30896  1.26760 -0.01034  0.97243  0.003364  0.002910  0.000000    1.1561
   2.35463  1.31325 -0.01160  0.97609  0.003268  0.002876  0.000000    1.1362
   2.40666  1.36526 -0.01294  0.97935  0.003183  0.002846  0.000000    1.1184
   2.46593  1.42452 -0.01436  0.98226  0.003109  0.002820  0.000000    1.1025
   2.53346  1.49203 -0.01586  0.98484  0.003045  0.002797  0.000000    1.0887
